4.03;45.30;-1.63;6.32;-10.45;24.39
15.25;56.52;7.30;5.44;1.63;24.39
21.78;59.02;-0.76;-0.11;0.87;5.88
21.78;31.58;5.66;39.31;-3.16;38.88
14.48;55.76;8.93;-0.11;-4.79;48.57
20.15;42.04;3.27;4.68;-7.19;42.14
7.19;29.95;3.27;1.42;-3.16;19.60
45.96;2.61;6.43;1.42;1.63;-6.21
0.76;-8.71;1.63;-9.80;-32.23;-23.96
-14.48;-24.83;-19.28;-3.38;-12.85;-65.78
-20.15;-73.18;-4.03;9.47;-9.69;-77.10
-12.09;-57.06;-4.03;-2.61;14.48;-50.53
-33.87;-80.37;-4.03;-0.11;4.03;-35.17
-18.51;-57.06;-4.03;-0.98;0.87;-41.60
-17.75;-58.70;-2.40;0.65;4.03;-36.81
-36.26;-46.61;-3.16;16.01;9.69;-15.90
14.48;12.20;-1.63;16.01;5.66;0.22
-4.90;-15.14;-1.63;-0.98;8.06;9.15
3.16;9.04;-1.63;1.42;4.90;24.39
27.33;25.16;-0.76;3.05;6.43;31.69
14.48;40.40;-1.63;3.05;4.03;48.57
12.09;55.76;4.03;6.32;1.63;63.92
20.91;62.18;4.03;10.35;3.27;42.14
23.30;57.39;5.66;8.71;-7.19;63.05
16.88;56.52;0.87;-2.61;-4.79;22.76
15.25;38.88;0.87;6.32;-7.19;26.03
37.90;22.76;2.40;-2.61;-8.06;6.64
3.16;5.01;0.87;-2.61;-6.43;-10.24
-7.30;-8.71;-0.76;-1.74;1.63;-7.84
-26.57;-3.05;-1.63;-1.74;-3.16;-40.84
-8.06;-43.34;-1.63;5.44;-0.76;-48.13
-20.15;-46.61;-4.03;-2.61;-5.66;-65.01
-22.54;-57.06;-4.03;-3.38;4.03;-52.16
-16.12;-50.64;-3.16;10.35;1.63;-43.23
-16.99;-57.83;-3.16;-5.01;4.03;-32.02
-14.48;-35.28;-5.66;-0.11;7.30;-24.72
-8.06;-26.46;-6.43;-0.98;4.90;-11.87
2.40;-34.52;-6.43;-2.61;4.03;6.64
3.16;3.38;0.87;1.42;4.03;10.67
12.85;21.89;0.00;3.05;4.03;18.73
16.12;45.30;0.87;0.65;3.27;34.85
26.57;55.76;0.87;28.86;1.63;32.45
28.97;63.82;7.30;3.05;-4.79;26.79
20.91;56.52;-0.76;2.29;-4.79;61.53
40.29;50.97;0.87;5.44;-3.16;50.20
14.48;42.04;4.03;3.05;-6.43;30.06
42.69;18.73;-0.76;-3.38;-7.19;5.12
-5.66;4.14;-1.63;-0.98;-4.79;-6.97
-4.90;-12.74;2.40;-3.38;-21.67;-3.81
1.63;-24.07;-1.63;-2.61;-7.19;-45.63
-8.06;-46.61;-1.63;10.35;-8.06;-45.63
-12.09;-46.61;-6.43;-3.38;-4.79;-51.29
-19.38;-60.22;0.87;-4.14;3.27;-44.87
5.66;-53.80;-5.66;-6.64;5.66;-56.19
-22.54;-59.46;-6.43;4.68;3.27;-48.13
-13.72;-45.74;-4.03;-36.37;4.03;-36.05
-29.84;-28.10;-1.63;0.65;4.03;-19.06
-8.06;-10.35;-2.40;7.95;2.40;7.51
3.16;4.14;-0.76;-28.31;4.03;18.73
8.82;30.82;0.87;5.44;6.43;45.41
17.75;42.04;2.40;3.05;4.03;78.41
11.22;54.99;6.43;8.71;3.27;58.26
18.51;58.15;4.03;6.32;-1.63;52.60
18.51;50.09;0.00;4.68;-6.43;38.88
17.75;52.49;20.15;-2.61;-4.79;31.69
8.82;34.85;2.40;-0.11;-8.06;26.79
12.85;29.19;3.27;-0.98;-9.69;14.70
3.16;9.04;-1.63;-4.14;-11.22;-24.72
13.72;-12.74;-0.76;-5.01;-10.45;-39.20
-14.48;-24.83;-4.03;-6.64;-4.79;-35.17
-14.48;-46.61;-1.63;-7.41;-8.82;-42.47
-20.15;-32.89;-2.40;-5.01;4.03;-44.87
-20.15;-44.10;-1.63;-8.17;4.90;-38.44
-13.72;-55.43;16.99;-2.61;4.03;-32.02
-16.99;-57.83;-12.09;-6.64;4.03;-48.90
-13.72;-41.71;-2.40;-1.74;4.90;-35.17
-26.57;-27.22;-4.03;-1.74;4.90;3.48
-5.66;-7.95;-1.63;26.46;4.90;21.24
18.51;15.46;-23.30;-0.11;2.40;46.94
15.25;29.19;0.87;3.05;-3.16;17.97
14.48;47.70;0.87;8.71;0.87;38.11
47.48;59.79;1.63;18.40;-8.06;50.20
55.54;59.79;3.27;10.35;-19.28;59.89
16.88;55.76;5.66;5.44;0.87;67.08
15.25;56.52;-1.63;1.42;-4.79;76.01
5.66;65.45;6.43;4.68;8.93;26.79
4.03;29.19;6.43;-2.61;-4.79;1.09
1.63;0.11;0.00;-7.41;-4.79;-30.38
-0.00;-6.32;2.40;-9.80;-4.79;-50.53
-8.06;-22.43;-1.63;-2.61;-14.48;-51.29
-10.45;-37.68;2.40;-6.64;-0.76;-77.10
-18.51;-50.64;-1.63;-7.41;4.90;-48.13
-19.38;-58.70;-4.03;-4.14;0.87;-48.13
-13.72;-58.70;0.00;-4.14;2.40;-39.20
-15.35;-54.67;-1.63;-1.74;4.03;-32.78
-14.48;-44.98;-3.16;-1.74;1.63;-22.32
-10.45;-28.86;-8.82;3.92;4.03;-8.60
-0.87;-7.95;0.00;-1.74;12.09;11.54
1.63;5.77;-0.76;3.05;4.03;17.21
2.40;20.26;-0.76;7.95;3.27;30.82
10.45;40.40;2.40;5.44;-16.12;43.78
21.78;57.39;6.43;7.95;-3.16;52.60
21.78;65.45;4.03;7.95;-8.06;45.41
24.94;54.12;4.03;10.35;-17.64;42.14
18.51;53.36;4.03;3.05;-4.79;37.35
11.22;42.91;2.40;-1.74;-9.69;27.66
6.43;29.19;-1.63;-4.14;-8.06;26.03
-29.84;5.77;-0.76;-1.74;-6.43;1.85
-4.90;-16.77;-1.63;5.44;-8.82;-6.21
-8.93;-20.80;1.63;-3.38;-4.79;-20.69
-13.72;-38.55;-4.03;-35.61;-1.63;-43.23
-17.75;-59.46;-5.66;-2.61;3.27;-50.53
-22.54;-67.52;-3.16;-5.77;3.27;-60.98
-22.54;-57.83;-1.63;-1.74;4.03;-59.35
-18.51;-53.80;-6.43;1.42;3.27;-50.53
-8.06;-40.95;-4.03;1.42;4.03;-32.02
-8.93;-21.56;-3.16;1.42;1.63;-11.00
3.16;-17.53;-21.78;8.71;4.03;13.18
3.16;12.20;-1.63;9.47;4.90;12.31
14.48;25.92;-0.76;10.35;1.63;19.60
16.88;42.91;1.63;-2.61;-6.43;34.85
20.91;56.52;0.87;10.35;0.00;54.23
37.03;56.52;2.40;-20.26;0.00;52.60
17.75;45.30;7.30;5.44;-0.76;59.02
13.72;48.46;-1.63;3.05;2.40;43.78
16.12;42.04;4.03;3.05;0.87;23.63
4.03;25.16;2.40;7.08;4.03;13.18
3.16;13.83;7.30;-2.61;-1.63;-19.93
8.06;-5.44;2.40;-5.01;4.03;-26.35
0.76;-28.10;-0.76;-9.80;-7.19;-23.96
-7.30;-42.58;-2.40;-5.01;-8.06;-60.98
-24.18;-73.18;-1.63;-5.01;-4.79;-76.34
-20.15;-57.83;-4.79;-2.61;-1.63;-63.38
-21.78;-52.16;-3.16;-1.74;4.03;-48.90
-21.02;-51.40;-4.03;1.42;2.40;-29.51
-18.51;-46.61;-5.66;15.14;-13.61;-15.90
-8.06;-24.83;9.69;-2.61;3.27;-22.32
-0.87;-4.68;-1.63;0.65;4.03;9.15
3.16;13.07;-1.63;-2.61;4.90;17.97
5.66;19.49;0.00;5.44;4.03;22.76
11.22;38.88;0.00;-1.74;2.40;48.57
19.28;52.49;4.03;-4.14;-0.76;69.59
16.88;57.39;6.43;2.29;-4.79;64.69
15.25;84.72;7.30;-0.11;-4.79;71.11
12.09;56.52;9.69;-1.74;-8.06;48.57
14.48;43.67;6.43;-0.98;-3.16;15.57
8.82;29.95;6.43;-0.11;-3.16;3.48
4.79;15.46;-1.63;-3.38;-6.43;-39.20
0.76;-10.35;0.00;1.42;-7.19;-41.60
-8.93;-25.59;-1.63;-6.64;-4.03;-36.05
-12.96;-40.95;-2.40;-4.14;1.63;-54.56
-20.15;-57.06;-1.63;-2.61;-0.76;-46.50
-25.05;-63.49;-1.63;-1.74;0.87;-45.63
-22.54;-59.46;-2.40;-3.38;4.03;-37.57
-24.18;-57.06;-27.33;-5.01;4.90;-16.66
-20.15;-22.43;-2.40;-0.11;4.03;-14.27
-8.06;-24.83;-5.66;1.42;0.00;0.22
-1.63;-8.71;-1.63;5.44;4.03;10.67
3.16;5.77;-1.63;1.42;8.06;19.60
12.09;22.76;0.00;8.71;5.66;28.42
-2.40;35.61;2.40;30.49;4.03;40.51
24.94;56.52;4.03;10.35;-0.76;51.84
21.78;29.95;5.66;7.08;-5.66;44.54
21.78;25.16;2.40;9.47;-3.16;44.54
8.82;59.02;7.30;2.29;-6.43;39.75
12.85;45.30;5.66;-2.61;-7.19;34.85
4.79;30.82;0.00;-5.01;-8.06;26.03
3.16;5.01;4.03;-11.43;-4.79;1.09
-2.40;-7.08;-2.40;16.01;-12.09;-19.93
-10.45;-20.80;-2.40;-1.74;-12.09;-37.57
-20.15;-48.13;-1.63;9.47;-3.16;-50.53
-22.54;-55.43;-3.16;-15.46;4.03;-49.66
-12.09;-55.43;-4.79;-4.14;34.63;-33.54
-13.72;-59.46;-12.09;-5.77;8.93;-50.53
-14.48;-48.13;-4.79;-2.61;4.90;-41.60
-8.06;-41.71;-1.63;-0.11;11.33;-28.75
-8.93;-33.65;-1.63;-1.74;4.90;-23.09
0.76;-5.44;-22.54;0.65;6.43;-11.87
3.16;41.27;-1.63;2.29;4.03;9.91
-1.63;25.16;4.03;5.44;-0.76;1.09
18.51;19.49;0.87;35.28;0.00;42.14
26.57;49.33;6.43;7.95;-21.67;41.38
28.97;61.42;4.03;1.42;-7.19;42.91
-1.63;55.76;0.87;0.65;-8.82;51.84
16.88;54.12;3.27;-0.11;-8.06;37.35
12.09;35.61;7.30;3.05;-25.70;25.26
11.22;59.79;0.87;-0.11;-9.69;6.64
1.63;10.67;4.03;-1.74;-4.79;-14.27
-4.90;-17.53;-1.63;-5.01;-6.43;-19.93
-12.09;-24.83;-3.16;-3.38;-20.91;-19.93
-16.99;-48.13;-8.82;-3.38;-4.03;-67.41
-20.15;-57.06;-4.79;0.65;-0.76;-47.26
-22.54;-57.06;-6.43;-5.01;1.63;-35.17
-33.87;-75.58;-3.16;-2.61;3.27;-48.13
-9.69;-60.22;-7.19;-2.61;-19.28;-34.41
-4.03;-46.61;-4.03;-0.98;16.12;-16.66
-0.87;-3.05;-1.63;2.29;4.03;0.22
16.88;-8.71;-1.63;2.29;4.03;-2.18
3.16;8.17;0.87;-0.11;4.03;4.25
11.22;22.76;4.03;-27.55;4.03;26.79
12.09;48.46;6.43;5.44;1.63;43.78
54.78;56.52;2.40;10.35;-7.19;53.47
17.75;61.42;5.66;2.29;-4.79;57.50
14.48;57.39;6.43;3.05;-4.79;50.97
12.85;54.99;3.27;2.29;-11.22;41.38
4.79;38.01;1.63;-1.74;-10.45;32.45
6.43;30.82;2.40;-2.61;-5.66;21.24
-4.90;5.77;0.00;5.44;-6.43;-9.37
-2.40;-16.01;4.03;-4.14;-3.16;-23.09
-8.06;-20.80;0.00;-4.14;3.27;-29.51
-17.75;-39.31;-1.63;-6.64;3.27;-22.32
-14.48;-51.40;-2.40;-1.74;4.03;-38.44
-17.75;-57.06;0.00;-2.61;7.30;-21.45
-21.78;-53.80;-3.16;-2.61;4.03;-49.66
-0.87;-55.43;-4.03;-0.98;8.06;-45.63
-12.09;-40.95;-4.03;0.65;9.69;-37.57
-11.33;-28.10;-2.40;-8.17;5.66;-19.93
-8.06;-7.95;-3.16;-2.61;2.40;-11.87
3.16;13.83;-0.76;1.42;4.90;9.91
3.16;21.89;0.87;6.32;2.40;18.73
16.88;44.43;0.00;5.44;0.00;52.60
24.18;57.39;2.40;2.29;-8.82;51.84
13.72;59.02;12.96;4.68;-6.43;52.60
19.28;56.52;4.03;3.05;-4.79;34.85
21.78;51.73;2.40;4.68;-7.19;52.60
28.21;36.37;3.27;1.42;-8.82;26.03
8.06;25.92;2.40;4.68;-5.66;16.33
-0.87;9.04;1.63;-1.74;-6.43;-11.87
-0.87;-13.50;-0.76;12.74;-22.54;1.09
-7.30;-22.43;-0.76;-15.46;-8.06;-24.72
-12.96;-46.61;6.43;-2.61;-8.06;-76.34
-20.15;-59.46;-3.16;-3.38;-0.76;-43.23
-27.44;-67.52;-6.43;-1.74;3.27;-52.16
-24.18;-61.86;-4.79;-1.74;4.03;-55.32
-16.99;-36.92;-2.40;4.68;33.87;-44.87
-0.00;-67.52;-1.63;2.29;4.03;-36.81
-7.30;-22.43;-1.63;-0.98;35.50;-20.69
14.48;-7.08;4.03;-0.98;3.27;13.94
15.25;7.41;2.40;-2.61;1.63;12.31
8.06;23.52;-0.76;9.47;1.63;30.82
8.82;36.37;1.63;1.42;4.03;67.08
13.72;53.36;2.40;8.71;0.00;50.97
26.57;56.52;-1.63;7.95;-8.82;43.78
20.15;54.99;9.69;2.29;-4.79;42.14
22.54;70.24;9.69;6.32;-3.16;31.69
12.09;42.91;3.27;-0.98;-4.03;16.33
8.06;26.79;6.43;-29.19;-11.22;-11.87
-2.40;6.64;2.40;-1.74;-8.06;-16.66
0.76;-15.14;-1.63;-3.38;-4.79;-11.87
-8.93;-24.07;3.27;-3.38;-4.03;-24.72
-14.48;-46.61;-3.16;-2.61;-3.16;-52.16
-16.99;-59.46;-8.82;-1.74;0.00;-43.23
-53.14;-84.40;-6.43;-0.11;1.63;-40.08
-20.15;-50.64;-1.63;-3.38;4.03;-50.53
-7.30;-55.43;-7.19;-3.38;4.03;-52.16
-17.75;-40.95;-8.82;-1.74;6.43;-32.78
-6.43;-20.80;-2.40;-5.01;1.63;-12.63
-7.30;-5.44;-1.63;-3.38;3.27;6.64
11.22;17.10;-1.63;6.32;4.90;13.94
4.03;17.10;-0.76;6.32;4.03;29.29
12.09;43.67;0.87;-4.14;2.40;50.20
18.51;56.52;8.06;-0.98;-3.16;56.63
24.18;59.02;-0.76;0.65;-1.63;50.20
15.25;49.33;8.93;-0.11;-4.03;45.41
16.88;54.99;4.03;-0.98;-16.12;38.88
28.21;43.67;3.27;5.44;-12.09;23.63
18.51;22.76;4.03;11.98;4.03;5.12
3.16;6.64;-1.63;1.42;-8.06;-19.06
-8.93;-7.95;-1.63;3.05;25.81;-17.42
-9.69;-24.07;4.03;-10.67;3.27;2.72
-16.99;-46.61;-4.03;-9.80;0.87;-38.44
-14.48;-53.80;-3.16;-6.64;4.03;-48.13
8.06;-57.06;-2.40;-0.98;0.00;-46.50
-25.05;-28.10;-4.79;-17.86;-3.16;-50.53
-45.08;-31.25;-8.82;-3.38;4.03;-48.13
-8.93;-45.74;-5.66;-4.14;8.93;-35.17
-4.90;-24.07;-3.16;-1.74;9.69;-10.24
-5.66;-5.44;-0.76;-2.61;9.69;26.79
4.03;10.67;-1.63;1.42;12.09;27.66
3.16;26.79;-2.40;6.32;5.66;27.66
8.82;44.43;-4.03;-0.11;3.27;39.75
16.88;56.52;0.87;4.68;0.00;27.66
12.09;59.02;4.03;1.42;-0.76;24.39
13.72;56.52;5.66;3.05;-3.16;16.33
16.12;56.52;2.40;6.32;-7.19;40.51
17.75;43.67;2.40;0.65;-4.03;29.29
11.22;42.91;4.03;-0.98;-0.76;13.18
4.03;12.20;-1.63;-0.11;-0.76;-6.21
2.40;-8.71;8.93;-0.11;-6.43;-46.50
-0.00;-23.20;2.40;-2.61;-7.19;-24.72
-8.93;-46.61;-5.66;-2.61;-1.63;-14.27
-15.35;-58.70;-3.16;-4.14;-8.06;-50.53
-20.15;-64.25;-2.40;-5.01;3.27;-44.10
-22.54;-61.86;-27.33;-2.61;4.03;-19.06
-8.93;-52.16;-1.63;24.83;0.00;-33.54
24.94;-39.31;-2.40;-1.74;4.03;-11.87
-8.06;-28.86;-0.76;2.29;4.03;9.15
-0.87;-15.14;7.30;6.32;1.63;22.00
8.06;6.64;1.63;2.29;4.03;41.38
7.19;25.16;0.00;3.05;5.66;46.94
15.25;42.91;7.30;8.71;5.66;46.94
26.57;57.39;3.27;2.29;-4.03;30.82
16.88;57.39;-1.63;-2.61;-0.76;27.66
15.25;49.33;4.03;-6.64;-6.43;13.18
15.25;54.12;6.43;-0.98;-6.43;6.64
-22.54;42.91;2.40;20.80;-10.45;22.00
4.03;25.92;-7.19;-2.61;-9.69;14.70
3.16;4.14;2.40;-8.17;-4.03;1.09
-4.03;-7.08;-0.76;-0.98;-3.16;-11.87
-9.69;-21.56;-28.21;-5.01;-0.76;-22.32
-7.30;-44.98;-4.03;-3.38;-0.76;-42.47
-8.06;-50.64;-0.76;-2.61;3.27;-32.02
-25.81;-56.19;-4.03;-4.14;3.27;-39.20
-27.44;-86.90;-5.66;-4.14;4.03;-44.87
-13.72;-53.80;-1.63;-2.61;4.03;-38.44
-12.09;-42.58;-6.43;-3.38;-6.43;-22.32
-8.93;-20.80;-0.76;3.05;-0.76;-25.48
4.03;-3.92;0.87;4.68;8.06;1.09
13.72;17.10;2.40;-24.28;11.33;11.54
-15.35;42.04;2.40;3.05;-1.63;30.82
12.09;42.91;-0.76;5.44;2.40;53.47
16.12;58.15;0.00;4.68;6.43;50.20
28.97;56.52;4.03;1.42;-7.19;32.45
13.72;53.36;1.63;6.32;-13.61;37.35
15.25;48.46;4.03;1.42;-9.69;34.85
8.06;34.85;-0.76;-1.74;-10.45;27.66
11.22;42.91;-1.63;-29.19;-8.82;17.21
4.03;6.64;-1.63;-3.38;-3.16;-6.97
-4.90;-7.95;-1.63;-2.61;-3.16;-11.00
-9.69;-20.80;16.99;0.65;4.03;-19.06
-15.35;-45.74;-1.63;-3.38;4.03;-46.50
-16.99;-53.80;-6.43;-9.80;4.03;-54.56
-22.54;-62.73;-2.40;-4.14;2.40;-45.63
-14.48;-53.80;-16.12;-8.17;2.40;-52.93
-21.02;-52.16;0.87;-8.17;4.03;-41.60
-2.40;-37.68;-10.45;1.42;3.27;-24.72
-5.66;-29.62;-16.12;0.65;8.06;19.60
0.76;-6.32;-0.76;6.32;8.93;16.33
8.06;10.67;0.87;7.95;3.27;22.00
5.66;0.11;-0.76;5.44;1.63;25.26
11.22;57.39;-1.63;-0.11;0.00;41.38
16.12;50.97;0.00;7.95;0.00;38.88
15.25;59.02;8.93;5.44;5.66;41.38
15.25;54.12;4.03;3.05;-3.16;48.57
16.12;56.52;0.00;2.29;-4.79;35.72
4.03;70.24;5.66;1.42;-6.43;16.33
3.16;26.79;4.03;6.32;-4.79;11.54
8.82;0.98;0.00;2.29;-6.43;2.72
-0.87;-7.95;1.63;5.44;-4.03;-6.21
3.16;-21.56;-1.63;-0.11;-20.91;-11.00
-4.03;-45.74;-1.63;3.92;0.00;-42.47
4.79;-60.22;-3.16;4.68;4.03;-69.04
-14.48;-59.46;-6.43;1.42;2.40;-54.56
-17.75;-51.40;-26.57;-1.74;4.03;-63.38
-21.78;-57.06;-5.66;-2.61;1.63;-58.59
-19.38;-37.68;-1.63;-0.11;-18.51;-33.54
-15.35;-23.20;-1.63;2.29;4.03;1.09
0.76;33.21;-1.63;28.10;16.12;17.97
5.66;7.41;2.40;1.42;8.93;19.60
3.16;26.79;-1.63;4.68;8.06;29.29
16.88;41.27;-21.78;10.35;4.03;32.45
16.12;54.99;4.03;4.68;-1.63;39.75
20.91;58.15;7.30;5.44;-1.63;41.38
26.57;56.52;0.00;4.68;-11.22;51.84
16.12;48.46;9.69;3.05;-12.85;43.78
8.82;67.84;-0.76;-2.61;-6.43;42.14
3.16;20.26;0.00;2.29;-3.16;22.76
3.16;2.61;-1.63;-2.61;-5.66;-2.94
3.16;-8.71;-1.63;-0.98;-0.76;-15.90
-8.93;-31.25;-1.63;-2.61;0.87;-43.23
-18.51;-46.61;-27.33;-6.64;-3.16;-68.28
-16.99;-48.13;-2.40;-3.38;4.03;-73.07
-14.48;-57.06;0.00;-4.14;1.63;-53.69
-18.51;-53.80;-3.16;-2.61;4.03;-40.84
-22.54;-52.16;-1.63;-3.38;-4.03;-26.35
-7.30;-46.61;-4.03;0.65;0.00;-9.37
-5.66;-20.80;-4.03;-0.11;4.90;14.70
-0.87;-5.44;0.00;-3.38;3.27;11.54
8.06;14.70;0.00;1.42;-6.43;1.09
3.16;23.52;2.40;2.29;3.27;1.09
4.03;42.91;4.03;1.42;4.03;35.72
30.60;55.76;-8.82;3.05;-6.43;42.91
16.12;58.15;-3.16;1.42;-7.19;57.50
23.30;54.12;7.30;36.92;-8.06;51.84
20.15;54.12;-5.66;3.05;-5.66;33.32
15.25;42.91;2.40;-0.11;-1.63;22.00
3.16;29.19;6.43;1.42;-4.03;1.85
-2.40;5.01;0.87;-7.41;-0.76;-8.60
-1.63;-8.71;0.87;-5.77;-3.16;-15.90
3.16;-20.04;-1.63;-5.01;-6.43;-26.35
0.76;-43.34;-5.66;-9.80;1.63;-51.29
-18.51;-84.40;-3.16;-10.67;4.90;-47.26
-14.48;-64.25;-7.19;-32.34;4.90;-40.08
-34.63;-57.83;-2.40;-3.38;4.03;-43.23
-13.72;-53.80;-12.85;-15.46;3.27;-40.08
0.76;-34.52;-5.66;-7.41;-8.06;-16.66
-12.09;-29.62;-27.33;-2.61;4.03;-11.87
-6.43;-8.71;-1.63;0.65;0.00;5.12
18.51;12.20;-1.63;0.65;-9.69;19.60
15.25;17.86;18.51;2.29;6.43;27.66
5.66;42.91;2.40;38.55;2.40;51.84
12.09;49.33;2.40;4.68;2.40;47.81
0.76;55.76;6.43;6.32;3.27;42.14
16.12;30.82;4.03;8.71;-21.67;40.51
17.75;54.99;6.43;7.95;-4.79;43.78
10.45;50.97;3.27;7.95;-5.66;45.41
8.82;30.82;-0.76;6.32;-38.66;17.97
3.16;4.14;4.03;2.29;-5.66;1.09
3.16;-11.11;-0.76;-1.74;-3.16;-24.72
-6.43;-23.20;-0.76;1.42;0.00;-46.50
-13.72;-45.74;8.06;-2.61;4.03;-65.01
-17.75;-54.67;-3.16;-4.14;3.27;-80.37
-22.54;-58.70;-1.63;-4.14;8.06;-60.98
-19.38;-55.43;-6.43;-5.01;-4.03;-50.53
-22.54;-54.67;-5.66;-0.11;4.90;-36.81
-15.35;-44.10;-6.43;-2.61;-6.43;-26.35
1.63;-24.07;-5.66;-2.61;2.40;-0.54
-25.81;-11.98;-1.63;-1.74;0.00;26.79
3.16;15.46;-1.63;8.71;9.69;34.85
12.85;25.16;0.00;2.29;4.03;55.87
16.12;43.67;0.00;2.29;0.00;50.20
-22.54;56.52;2.40;-6.64;2.40;52.60
12.09;44.43;0.00;-3.38;-0.76;53.47
16.12;53.36;6.43;0.65;-6.43;45.41
12.09;74.27;1.63;-0.98;-6.43;38.88
8.82;41.27;6.43;1.42;-4.79;16.33
-16.99;49.33;3.27;-0.98;-4.79;-3.81
-4.03;14.70;12.09;-3.38;-3.16;-14.27
-8.93;-11.98;0.87;2.29;0.87;-23.09
3.16;-21.56;0.00;-6.64;-0.76;-24.72
-6.43;-41.71;-1.63;-5.01;4.03;-47.26
-15.35;-48.13;-1.63;-4.14;4.03;-41.60
-21.78;-61.86;-1.63;-3.38;3.27;-41.60
-21.78;-47.37;-1.63;-0.98;4.03;-42.47
-17.75;-57.06;-4.03;19.17;4.03;-41.60
-2.40;-37.68;-4.03;-2.61;1.63;-15.90
-2.40;-25.59;-2.40;-2.61;-21.67;-6.21
-0.87;-11.98;-1.63;1.42;-7.19;-0.54
1.63;9.04;-1.63;7.95;-0.76;6.64
0.76;25.92;1.63;5.44;4.03;26.03
-14.48;35.61;-1.63;10.35;2.40;34.09
16.88;54.99;6.43;11.98;3.27;29.29
20.15;54.12;2.40;7.08;-3.16;25.26
42.69;49.33;3.27;7.95;-3.16;6.64
21.78;51.73;5.66;-0.11;-7.19;16.33
14.48;46.06;0.87;23.20;-9.69;19.60
8.06;35.61;1.63;-0.98;-6.43;16.33
3.16;5.01;-1.63;-1.74;-8.06;-4.57
-2.40;-11.11;2.40;1.42;-5.66;-12.63
-8.93;-28.10;0.87;-2.61;4.03;-23.96
-11.33;-47.37;-2.40;-5.01;2.40;-43.23
-23.41;-58.70;-0.76;-1.74;6.43;-42.47
-9.69;-75.58;-1.63;6.32;4.90;-40.08
-22.54;-56.19;-2.40;-2.61;4.90;-44.87
-13.72;-48.13;-1.63;-1.74;7.30;-29.51
-14.48;-36.05;-2.40;0.65;4.03;5.12
-6.43;-7.95;-1.63;-3.38;4.90;-1.31
1.63;-7.95;-0.76;4.68;4.90;18.73
8.82;5.01;-0.76;6.32;4.03;22.76
4.03;17.10;-1.63;-22.76;-3.16;22.76
15.25;55.76;1.63;6.32;2.40;38.88
24.94;62.18;0.87;-0.11;-3.16;52.60
-2.40;52.49;2.40;7.95;8.06;50.97
14.48;31.58;5.66;-0.11;-7.19;42.91
17.75;52.49;3.27;-1.74;-1.63;31.69
7.19;33.98;7.30;6.32;-5.66;22.00
1.63;29.19;10.45;-5.01;-6.43;26.79
3.16;13.07;-1.63;-2.61;-6.43;1.09
-4.03;-5.44;1.63;-1.74;-4.03;-11.87
0.76;-21.56;0.00;-8.17;-4.03;-24.72
-18.51;-41.71;-1.63;-3.38;1.63;-50.53
-16.99;-67.52;-2.40;-3.38;-0.76;-52.93
-20.15;-57.83;-4.03;-1.74;4.90;-38.44
-10.45;-49.00;-4.03;-1.74;8.06;-28.75
-17.75;-57.06;-6.43;-1.74;-0.76;-29.51
-12.96;-37.68;-1.63;5.44;9.69;-23.96
-5.66;-24.83;0.00;2.29;4.03;1.09
-4.90;-7.95;-0.76;-2.61;3.27;16.33
5.66;6.64;0.00;24.83;16.99;24.39
-4.90;21.89;1.63;-24.28;3.27;39.75
11.22;43.67;2.40;-0.11;-0.76;40.51
-7.30;79.93;4.03;-27.55;-7.19;42.91
24.18;56.52;4.03;4.68;-7.19;28.42
13.72;52.49;3.27;2.29;-11.22;21.24
13.72;54.99;4.03;7.95;-10.45;25.26
7.19;32.34;4.03;-4.14;-3.16;26.79
6.43;25.16;3.27;1.42;-0.76;10.67
28.21;3.38;-3.16;-2.61;-0.76;-6.97
-4.03;-7.95;-2.40;-0.11;-8.06;-23.96
-5.66;-23.20;-1.63;-4.14;-4.03;-32.02
-38.66;-44.98;-1.63;-1.74;1.63;-35.17
-21.02;-50.64;-1.63;-3.38;4.03;-44.87
-21.02;-63.49;-3.16;-32.34;4.90;-50.53
-14.48;-56.19;-6.43;3.05;1.63;-38.44
-18.51;-48.13;-4.03;-7.41;2.40;-28.75
-16.99;-33.65;-0.76;-0.98;4.03;-37.57
-12.09;-21.56;-5.66;-0.11;4.03;-0.54
-22.54;0.98;0.87;7.08;4.03;-11.87
21.78;7.41;-1.63;-6.64;4.90;13.18
16.12;24.28;3.27;-0.11;3.27;23.63
16.12;43.67;3.27;0.65;-5.66;48.57
24.18;50.97;-0.76;-8.17;-3.16;54.99
21.78;65.45;4.03;-2.61;-3.16;43.78
16.88;54.12;7.30;3.05;-9.69;24.39
17.75;66.97;3.27;2.29;-7.19;16.33
18.51;20.26;0.00;-2.61;-9.69;18.73
4.79;25.92;0.87;-2.61;-5.66;12.31
-12.09;34.85;-1.63;-12.20;-3.16;-6.21
-12.96;-10.35;-1.63;24.07;-12.85;-4.57
-49.11;-20.80;-1.63;-2.61;1.63;-29.51
-22.54;-42.58;-1.63;-11.43;-2.40;-60.98
-21.02;-57.06;-4.03;-9.80;4.03;-61.75
-22.54;-55.43;-11.22;-4.14;1.63;-54.56
-22.54;-57.83;-1.63;-1.74;4.90;-45.63
-13.72;-53.80;-3.16;-9.80;-0.76;-32.02
-15.35;-40.95;-4.03;-2.61;4.03;-19.93
-6.43;-32.89;-5.66;-2.61;6.43;1.09
3.16;-7.08;-1.63;11.98;12.09;12.31
4.79;10.67;-1.63;5.44;21.78;26.79
6.43;17.10;-1.63;7.08;3.27;27.66
15.25;29.95;-1.63;22.43;0.00;53.47
28.21;56.52;18.51;8.71;-7.19;53.47
16.12;55.76;4.03;8.71;3.27;48.57
20.15;54.99;5.66;6.32;-4.03;41.38
20.15;75.03;0.87;1.42;-3.16;35.72
14.48;26.79;3.27;3.05;-6.43;9.15
4.03;22.76;0.87;-0.11;-8.06;2.72
0.76;-3.05;4.03;-2.61;2.40;-4.57
-7.30;-11.98;15.35;-2.61;-3.16;-11.87
-12.96;-24.83;-0.76;-5.01;7.30;-26.35
-10.45;-42.58;-2.40;-6.64;0.87;-45.63
-18.51;-51.40;-1.63;-3.38;-1.63;-41.60
-22.54;-57.06;-2.40;-3.38;5.66;-35.17
-21.78;-47.37;11.33;-6.64;8.06;-36.05
-20.15;-41.71;-4.03;-2.61;4.03;-41.60
8.06;-41.71;-1.63;36.92;-14.48;-23.96
-8.93;-37.68;-2.40;-5.01;4.03;-9.37
3.16;-7.95;-19.28;7.08;4.90;5.88
8.06;21.89;6.43;0.65;4.03;9.91
4.03;29.19;16.99;4.68;2.40;22.00
16.12;42.91;-0.76;14.37;4.03;42.91
25.81;51.73;-17.75;4.68;0.87;47.81
14.48;55.76;0.00;7.08;0.00;50.97
8.82;83.09;4.03;1.42;-4.03;45.41
19.28;56.52;2.40;4.68;0.00;51.84
13.72;38.88;0.87;-0.98;-8.06;30.82
4.79;30.82;2.40;-2.61;-4.03;2.72
3.16;5.01;-3.16;-1.74;-13.61;-23.96
-4.90;-11.11;-0.76;-2.61;-4.79;-25.48
-0.87;-26.46;0.00;-3.38;-3.16;-40.08
-8.93;-45.74;-1.63;8.71;-0.76;-52.93
-17.75;-54.67;-1.63;-1.74;-0.76;-45.63
-22.54;-59.46;-1.63;16.01;-9.69;-44.87
-16.99;-33.65;-5.66;-5.77;4.03;-32.02
-18.51;-53.03;-3.16;-3.38;4.90;-25.48
-17.75;-38.55;-0.76;-1.74;6.43;-9.37
-9.69;-57.83;-4.03;6.32;12.96;9.91
-0.87;-3.05;-1.63;2.29;8.93;-0.54
-5.66;43.67;-1.63;2.29;4.03;13.18
2.40;22.76;2.40;5.44;4.03;26.79
16.12;38.88;0.87;6.32;0.00;28.42
10.45;52.49;0.00;7.08;13.72;52.60
10.45;56.52;3.27;4.68;-0.76;51.84
11.22;55.76;1.63;7.95;-7.19;43.78
24.94;53.36;10.45;1.42;-9.69;30.82
18.51;35.61;0.87;-0.11;-18.51;18.73
5.66;22.76;0.87;-2.61;-9.69;18.73
2.40;0.98;2.40;-1.74;-11.22;-7.84
-0.87;-9.47;2.40;6.32;-8.06;-26.35
-7.30;-20.80;-2.40;-1.74;-4.79;-20.69
-21.02;-44.98;-29.84;-5.77;1.63;-45.63
-18.51;-58.70;-5.66;-7.41;4.90;-61.75
-16.99;-54.67;-1.63;36.15;12.96;-48.13
-12.09;-51.40;-4.79;-4.14;4.90;-39.20
-13.72;-51.40;-2.40;5.44;4.03;-36.81
-25.05;-42.58;-2.40;-1.74;7.30;-23.96
1.63;-20.80;-1.63;22.43;4.90;-11.87
-7.30;-11.98;-1.63;1.42;4.03;35.72
-0.87;13.83;0.87;3.05;4.03;16.33
1.63;27.55;-3.16;4.68;2.40;57.50
-16.99;42.04;3.27;1.42;4.03;49.44
16.88;65.45;2.40;12.74;-20.91;54.99
0.76;52.49;7.30;4.68;0.00;48.57
21.78;45.30;-0.76;1.42;-1.63;27.66
24.18;43.67;4.90;6.32;-6.43;17.97
18.51;32.34;7.30;0.65;-4.79;6.64
11.22;27.55;3.27;3.05;-3.16;-12.63
0.76;5.01;6.43;-0.98;-4.03;-24.72
-14.48;-19.17;-1.63;-5.01;-3.16;-10.24
-9.69;-20.80;-0.76;-2.61;-6.43;-15.90
-8.93;-41.71;-16.12;-5.01;-6.43;-35.17
-14.48;-51.40;-2.40;-9.80;-4.03;-36.05
-18.51;-49.00;4.03;-5.77;2.40;-36.05
-18.51;-58.70;-4.03;-17.86;-4.03;-36.05
-48.35;-46.61;-3.16;-33.98;5.66;-20.69
-13.72;-34.52;-1.63;-3.38;5.66;-11.00
3.16;-22.43;-1.63;10.35;3.27;1.09
0.76;-22.43;-1.63;-2.61;-0.76;5.88
4.03;13.07;-1.63;-22.76;4.03;14.70
7.19;23.52;0.00;-11.43;2.40;14.70
10.45;42.91;-0.76;3.05;-12.85;34.85
16.12;46.06;6.43;8.71;0.00;37.35
23.30;55.76;4.03;-0.11;-4.03;52.60
36.26;48.46;7.30;-0.98;-4.79;46.94
16.88;50.97;1.63;-0.11;-0.76;29.29
11.22;36.37;5.66;-6.64;-8.82;26.03
3.16;17.10;-0.76;-1.74;-6.43;5.12
33.00;5.01;-0.76;-2.61;-3.16;-11.87
-5.66;-10.35;-5.66;-0.98;-1.63;-16.66
-1.63;-20.80;0.00;-3.38;-1.63;-36.05
-37.90;-49.00;-1.63;-5.01;-7.19;-59.35
-19.38;-53.80;-4.03;-32.34;3.27;-50.53
-12.96;-57.83;-1.63;-0.11;3.27;-34.41
-10.45;-51.40;-5.66;-2.61;5.66;-27.12
-22.54;-51.40;-6.43;-2.61;5.66;0.22
-7.30;-36.05;-2.40;-1.74;8.93;1.09
-0.87;-17.53;-1.63;27.22;4.03;1.09
3.16;5.01;-1.63;3.05;2.40;1.85
2.40;-12.74;-1.63;1.42;3.27;12.31
8.06;25.16;-0.76;6.32;1.63;12.31
10.45;39.64;0.87;9.47;-8.06;26.79
12.09;57.39;0.87;10.35;2.40;42.14
16.12;44.43;5.66;9.47;-22.54;47.81
12.09;56.52;3.27;6.32;0.00;52.60
28.21;46.06;9.69;5.44;-0.76;45.41
6.43;33.21;-0.76;4.68;-6.43;26.79
5.66;30.82;34.63;2.29;-6.43;11.54
3.16;5.77;2.40;-1.74;-8.06;-0.54
0.76;4.14;-1.63;-5.01;3.27;-36.05
-9.69;-25.59;-0.76;-1.74;-6.43;-23.96
-15.35;-44.10;-2.40;-8.17;-6.43;-65.01
-22.54;-57.06;-1.63;4.68;0.00;-51.29
-12.96;-58.70;-1.63;2.29;4.03;-40.84
-37.90;-58.70;-1.63;-4.14;2.40;-36.05
-12.96;-59.46;2.40;-0.98;-0.76;-36.05
-12.09;-43.34;-5.66;-0.11;5.66;-19.93
-0.87;-23.20;-1.63;-3.38;4.03;-22.32
-7.30;-10.35;0.87;1.42;5.66;1.85
2.40;12.20;0.00;3.05;4.03;6.64
4.03;16.23;0.87;3.05;0.00;26.03
16.88;56.52;0.87;24.07;4.90;42.14
16.88;55.76;-2.40;10.35;4.03;38.88
21.78;56.52;9.69;3.92;-4.79;28.42
24.18;82.33;8.93;3.05;-3.16;39.75
16.88;48.46;1.63;7.95;-3.16;34.09
20.91;33.98;0.00;2.29;-3.16;55.87
15.25;29.19;-0.76;5.44;-6.43;13.18
4.03;5.01;-1.63;-2.61;-6.43;32.45
-1.63;-6.32;-2.40;0.65;-8.82;-15.90
-4.90;-20.04;10.45;-4.14;-4.79;3.48
-17.75;-42.58;-1.63;-7.41;2.40;-43.23
-22.54;-48.13;19.38;-3.38;4.03;-72.31
3.16;-57.83;-1.63;-6.64;4.90;-45.63
-20.15;-72.31;-6.43;-2.61;4.90;-49.66
-11.33;-48.13;-1.63;-3.38;4.03;-50.53
-9.69;-40.95;-3.16;-0.98;4.03;-48.13
-6.43;-28.10;-1.63;7.95;1.63;-27.12
2.40;-21.56;-1.63;2.29;2.40;6.64
4.03;5.77;0.87;3.05;-4.03;26.79
12.09;16.23;-1.63;-17.86;4.03;41.38
16.12;35.61;11.33;9.47;4.03;50.20
21.78;55.76;6.43;7.95;-0.76;50.97
17.75;56.52;6.43;7.95;0.00;48.57
18.51;52.49;0.87;2.29;-0.76;40.51
12.09;52.49;5.66;2.29;-4.03;34.85
12.09;42.04;5.66;0.65;-8.06;26.79
11.22;27.55;4.03;-2.61;-8.06;11.54
3.16;3.38;3.27;-11.43;-7.19;-1.31
-0.87;-8.71;-0.76;2.29;0.00;-8.60
-10.45;-23.20;-4.03;16.01;9.69;-26.35
-27.44;-41.71;-4.03;-6.64;2.40;-53.69
-26.57;-57.06;-6.43;-8.17;2.40;-62.62
-17.75;-56.19;-4.03;-17.10;-9.69;-32.02
-7.30;-48.13;-10.45;-5.77;4.03;-58.59
-4.03;-50.64;-4.03;-1.74;-4.03;-29.51
-0.87;-36.05;-3.16;2.29;2.40;-19.93
1.63;-24.83;-1.63;3.05;2.40;-11.87
3.16;-12.74;-4.03;1.42;4.03;-4.57
4.03;8.17;-1.63;-0.98;4.90;22.76
5.66;17.86;-2.40;1.42;4.03;26.79
7.19;30.82;0.00;20.80;6.43;40.51
4.03;50.09;5.66;7.08;4.03;35.72
19.28;54.99;0.87;5.44;0.00;38.11
7.19;52.49;3.27;5.44;-1.63;42.14
16.12;54.12;4.03;-1.74;-0.76;51.84
15.25;41.27;22.54;6.32;-4.79;42.14
7.19;33.98;0.87;24.07;-4.03;26.79
-0.87;4.14;2.40;-0.11;-8.06;-11.87
-7.30;-12.74;6.43;-4.14;-8.82;-42.47
-10.45;-21.56;-1.63;-4.14;-9.69;-50.53
-13.72;-40.08;-1.63;-3.38;-3.16;-76.34
-20.15;-52.16;21.78;-10.67;-0.76;-58.59
-21.02;-59.46;-2.40;-6.64;-6.43;-44.87
-18.51;-53.80;-1.63;-4.14;2.40;-42.47
-21.02;-53.80;-7.19;0.65;1.63;-13.39
23.30;-37.68;-3.16;-0.98;1.63;-10.24
-0.87;-21.56;-4.03;-1.74;0.00;-9.37
1.63;-8.71;-1.63;-0.11;3.27;13.18
3.16;13.07;-0.76;0.65;3.27;26.03
7.19;19.49;0.00;9.47;4.03;26.79
16.12;36.37;6.43;3.05;3.27;50.20
11.22;45.30;6.43;-14.70;4.03;52.60
13.72;54.99;8.93;7.95;-3.16;38.11
10.45;49.33;4.03;-0.11;-0.76;43.78
15.25;56.52;4.03;3.05;-5.66;38.88
12.09;51.73;0.87;1.42;-11.22;22.76
8.06;25.16;1.63;-2.61;-6.43;4.25
-33.11;5.01;-0.76;-7.41;-4.03;-15.90
-2.40;-15.14;5.66;-2.61;0.00;-13.39
-5.66;-26.46;-1.63;10.35;-4.03;-22.32
-9.69;-39.31;-1.63;-1.74;4.03;-36.81
-18.51;-53.80;-3.16;35.28;3.27;-41.60
-12.96;-56.19;-8.82;-7.41;4.03;-27.12
-33.87;-55.43;-2.40;-29.19;4.03;-32.78
-40.29;-51.40;-1.63;-5.01;4.90;-25.48
-24.18;-34.52;-5.66;-1.74;4.03;-14.27
-26.57;-12.74;-2.40;-25.92;4.03;-0.54
12.85;-11.98;-2.40;-0.11;4.03;0.22
3.16;9.80;-1.63;-4.14;4.03;9.91
5.66;21.89;-1.63;3.05;-20.15;15.57
5.66;47.70;-2.40;5.44;-3.16;34.85
16.12;54.12;3.27;-2.61;-3.16;30.82
21.78;56.52;0.87;-7.41;-8.06;22.76
21.78;60.55;3.27;-26.79;-4.03;26.03
47.48;56.52;0.00;1.42;-4.79;34.85
8.82;34.85;4.90;5.44;-3.16;24.39
4.79;25.92;16.99;-2.61;-4.79;2.72
3.16;5.77;-1.63;-4.14;-4.03;-14.27
-7.30;-11.98;1.63;-3.38;-21.67;-23.09
-0.87;-24.83;-0.76;-5.01;-10.45;-25.48
-13.72;-48.13;-2.40;-9.80;0.87;-46.50
-21.78;-52.16;-4.03;-33.98;4.03;-50.53
-21.78;-51.40;-22.54;-3.38;4.90;-40.08
-16.99;-54.67;-3.16;-3.38;4.90;-46.50
-20.15;-46.61;-1.63;-0.11;4.90;-65.78
-10.45;-40.95;-4.79;-2.61;6.43;-3.81
-4.90;-27.22;-2.40;3.05;4.03;6.64
5.66;-11.11;-3.16;3.05;4.03;37.35
6.43;5.01;-1.63;11.11;3.27;36.48
3.16;18.73;0.00;8.71;4.03;38.11
13.72;45.30;0.00;6.32;2.40;45.41
14.48;57.39;4.03;-10.67;1.63;26.79
17.75;55.76;1.63;5.44;4.03;22.00
18.51;51.73;-0.76;3.05;0.87;18.73
16.88;20.26;4.03;19.17;8.93;28.42
16.12;23.52;6.43;-0.98;-20.91;5.12
11.22;29.19;2.40;5.44;-7.19;-10.24
4.03;5.77;0.87;0.65;-3.16;-12.63
3.16;-7.95;4.03;-3.38;-8.82;-23.96
-5.66;-11.98;-0.76;-1.74;-6.43;-18.30
-13.72;-46.61;-1.63;-3.38;2.40;-35.17
-10.45;-51.40;-1.63;-4.14;6.43;-36.81
-12.96;-61.09;-1.63;-0.98;4.03;-40.08
-8.06;-46.61;-1.63;-3.38;2.40;-47.26
-22.54;-50.64;-7.19;-5.01;-4.03;-38.44
-12.09;-42.58;-3.16;-3.38;4.03;-19.06
-4.03;-20.80;-4.79;-0.11;6.43;1.09
-0.87;17.10;-1.63;-10.67;8.93;23.63
-4.03;13.07;-10.45;4.68;2.40;13.94
4.79;29.19;-0.76;5.44;3.27;42.14
12.85;45.30;5.66;8.71;4.03;42.91
20.15;54.12;3.27;11.11;3.27;41.38
28.21;59.02;0.00;3.05;0.00;32.45
29.84;52.49;7.30;46.61;4.03;34.09
16.88;46.06;0.00;7.08;-1.63;35.72
8.06;42.91;8.06;-0.98;0.00;26.79
3.16;23.52;0.87;-0.11;-8.06;13.18
2.40;5.01;-0.76;-4.14;-7.19;-2.94
-5.66;-5.44;0.00;-3.38;-8.82;-17.42
-5.66;-23.20;-2.40;-3.38;-7.19;-34.41
-17.75;-46.61;-4.03;-5.01;-5.66;-51.29
-20.15;-58.70;-2.40;-0.11;2.40;-63.38
-19.38;-59.46;-4.03;-3.38;-11.22;-58.59
-20.15;-58.70;-2.40;-3.38;-3.16;-32.78
-18.51;-43.34;-1.63;-0.11;1.63;-32.78
-15.35;-40.95;-3.16;-2.61;4.03;-20.69
-5.66;-24.83;-1.63;1.42;4.03;-6.97
3.16;-2.29;0.00;2.29;8.93;13.18
5.66;4.14;-1.63;1.42;4.90;14.70
27.33;19.49;13.72;5.44;4.03;29.29
3.16;36.37;-8.82;3.05;4.03;38.11
8.82;50.97;15.35;1.42;3.27;50.20
8.82;56.52;2.40;2.29;-4.03;42.14
15.25;51.73;4.03;-0.98;-4.03;46.94
18.51;51.73;11.33;6.32;-5.66;52.60
8.82;36.37;-1.63;2.29;-4.79;31.69
8.06;26.79;-0.76;-5.01;-8.82;14.70
3.16;4.14;0.00;-1.74;-29.73;-3.81
-7.30;-16.01;-1.63;3.05;-3.16;-24.72
-9.69;-29.62;-4.03;-0.11;0.00;-27.99
-13.72;-42.58;-5.66;-8.17;-4.79;-61.75
-8.93;-49.00;-1.63;-4.14;-19.28;-65.78
-17.75;-48.13;0.87;-1.74;1.63;-47.26
-22.54;-53.80;-1.63;-5.77;2.40;-68.28
-17.75;-68.28;-6.43;-3.38;6.43;-48.90
-8.06;-38.55;-24.94;-1.74;4.03;-50.53
-6.43;-23.20;-0.76;-0.98;4.03;6.64
-2.40;-7.95;0.00;1.42;7.30;5.12
4.03;15.46;2.40;6.32;2.40;17.97
16.12;23.52;2.40;-2.61;-0.76;26.79
16.88;39.64;0.87;-2.61;0.00;42.14
20.15;50.97;0.87;6.32;-1.63;54.99
16.12;53.36;0.87;3.05;-1.63;52.60
16.12;56.52;0.00;-0.11;0.00;47.81
15.25;50.97;-5.66;3.05;-1.63;6.64
12.85;42.04;3.27;2.29;2.40;16.33
13.72;29.19;5.66;-15.46;1.63;-11.87
1.63;7.41;9.69;-2.61;-4.79;-23.96
-6.43;-9.47;0.87;-3.38;-4.03;-23.96
2.40;-20.80;-1.63;-0.98;-4.79;-33.54
-9.69;-37.68;-1.63;-2.61;0.00;-41.60
-20.15;-52.16;-0.76;-2.61;4.90;-43.23
-22.54;-59.46;-2.40;-2.61;-0.76;-39.20
-22.54;-53.80;-4.03;0.65;4.03;-43.23
-18.51;-50.64;-8.82;3.92;7.30;-38.44
-16.99;-45.74;-3.16;-2.61;4.03;-24.72
-5.66;-24.83;-4.03;-33.21;3.27;-16.66
-12.09;-7.08;-1.63;26.46;6.43;12.31
4.79;9.04;-3.16;1.42;3.27;30.82
-1.63;38.01;0.00;23.20;1.63;38.88
10.45;35.61;-1.63;6.32;4.03;54.23
17.75;48.46;4.03;7.95;-1.63;48.57
16.12;54.12;4.03;5.44;-4.79;38.88
15.25;50.09;-0.76;7.08;-4.79;26.79
17.75;49.33;15.35;5.44;-6.43;28.42
16.88;39.64;5.66;0.65;-11.22;17.97
13.72;21.89;-0.76;1.42;-11.22;1.09
4.79;0.98;-0.76;-1.74;-4.03;0.22
-5.66;-8.71;-2.40;-2.61;22.54;-19.06
-7.30;-23.20;-1.63;-2.61;12.96;-28.75
-13.72;-40.95;-1.63;-2.61;5.66;-41.60
-53.14;-77.97;-2.40;-5.01;0.87;-40.08
-22.54;-61.09;-4.03;-17.86;4.90;-32.78
-12.09;-50.64;-12.09;-2.61;1.63;-52.16
-4.03;-48.13;-3.16;-2.61;17.75;-35.17
0.76;-39.31;-2.40;-5.01;4.90;-20.69
-0.87;-24.83;-4.03;-1.74;1.63;-3.81
1.63;-31.25;-2.40;1.42;4.03;12.31
5.66;-3.92;0.00;1.42;4.03;25.26
7.19;28.31;-1.63;0.65;0.00;27.66
11.22;42.91;2.40;1.42;2.40;43.78
16.88;46.06;0.87;7.95;-0.76;34.85
41.93;58.15;4.03;8.71;-6.43;30.82
15.25;54.12;3.27;2.29;-4.79;38.88
12.09;49.33;7.30;2.29;-6.43;38.88
9.69;31.58;3.27;2.29;-4.03;25.26
8.82;20.26;6.43;1.42;-3.16;3.48
3.16;3.38;-1.63;-0.11;-9.69;-7.84
-4.90;-15.14;-0.76;-7.41;-4.03;-10.24
-8.93;-22.43;2.40;-3.38;0.00;-8.60
-9.69;-46.61;-2.40;5.44;0.00;-36.05
-12.96;-52.16;-2.40;-2.61;-15.25;-47.26
-14.48;-56.19;-0.76;-1.74;1.63;-39.20
-14.48;-50.64;-4.03;-15.46;5.66;-49.66
-19.38;-48.13;0.87;-3.38;6.43;-54.56
-4.90;-40.08;-0.76;0.65;-14.48;-50.53
-12.09;-24.83;-3.16;-0.11;3.27;-23.09
0.76;-7.95;-3.16;3.92;4.90;26.79
-22.54;9.04;-2.40;2.29;4.03;40.51
16.88;18.73;-1.63;1.42;-4.03;34.85
4.79;43.67;0.87;6.32;-8.06;39.75
46.72;46.06;2.40;2.29;-6.43;35.72
17.75;55.76;0.87;8.71;-8.06;32.45
13.72;49.33;7.30;4.68;-4.03;29.29
5.66;42.91;7.30;5.44;0.00;-6.97
10.45;32.34;2.40;-0.11;2.40;9.91
3.16;23.52;3.27;5.44;-4.03;3.48
4.03;5.01;3.27;-2.61;12.09;-15.90
-9.69;-8.71;0.87;-3.38;-3.16;-14.27
-13.72;-26.46;12.96;-5.01;4.03;-19.93
-11.33;-44.98;-6.43;-2.61;4.03;-23.96
-20.15;-47.37;2.40;-2.61;0.00;-36.81
-21.78;-57.83;-1.63;-5.01;4.03;-36.81
-22.54;-53.80;-27.33;-0.98;5.66;-25.48
-10.45;-48.13;-4.03;-5.01;8.06;-25.48
-16.99;-42.58;-2.40;-2.61;4.03;-19.93
-5.66;-20.80;-2.40;-0.11;0.87;-23.96
-7.30;-22.43;-2.40;22.43;7.30;6.64
3.16;7.41;7.30;-2.61;4.03;9.15
5.66;18.73;0.00;3.05;0.00;27.66
24.18;42.91;-1.63;5.44;-4.79;41.38
27.33;56.52;4.03;10.35;-7.19;44.54
23.30;57.39;20.15;1.42;-7.19;36.48
-8.93;49.33;-1.63;-0.11;-9.69;24.39
10.45;49.33;21.78;-5.01;2.40;40.51
12.09;34.85;3.27;-20.26;-1.63;9.91
-22.54;20.26;2.40;-0.98;0.00;12.31
1.63;5.01;-0.76;-3.38;0.00;-13.39
-4.03;-14.37;12.96;-5.01;-3.16;-22.32
-31.47;-44.10;-5.66;-2.61;-4.03;-38.44
-4.90;-40.95;-2.40;-1.74;-6.43;-62.62
-15.35;-53.80;2.40;-0.11;-4.79;-48.90
-14.48;-59.46;-3.16;-0.11;4.03;-37.57
-20.15;-40.95;-7.19;-3.38;4.03;-40.08
-22.54;-58.70;9.69;-0.98;4.03;-22.32
-11.33;-57.06;-2.40;-2.61;2.40;-12.63
-4.90;-27.22;-1.63;1.42;2.40;-4.57
1.63;-0.65;-3.16;5.44;0.00;19.60
11.22;6.64;-1.63;0.65;4.90;24.39
8.06;22.76;3.27;6.32;8.93;27.66
16.88;39.64;16.12;5.44;-3.16;44.54
20.15;49.33;6.43;6.32;4.03;51.84
20.15;55.76;4.03;8.71;-4.03;38.88
19.28;44.43;0.87;3.05;7.30;37.35
14.48;47.70;3.27;-28.31;-7.19;46.94
7.19;35.61;0.00;-0.11;-9.69;26.79
4.79;28.31;0.87;0.65;-3.16;15.57
-22.54;10.67;0.87;3.05;-9.69;-2.18
-8.06;-7.08;22.54;3.05;0.00;1.09
-5.66;-24.83;-1.63;-24.28;3.27;-25.48
-6.43;-45.74;-1.63;-4.14;-4.03;-65.01
-9.69;-52.16;-1.63;-9.80;31.47;-62.62
-18.51;-61.09;-5.66;-5.01;1.63;-59.35
-21.02;-61.86;-1.63;-2.61;2.40;-51.29
-21.02;-40.95;-6.43;-2.61;3.27;-22.32
-13.72;-38.55;-1.63;-2.61;3.27;-16.66
4.03;-20.04;4.03;-2.61;4.03;1.09
3.16;-3.05;-1.63;1.42;0.00;0.22
3.16;7.41;-1.63;0.65;-3.16;13.18
7.19;18.73;0.87;-0.11;1.63;13.18
16.88;42.04;0.87;6.32;-1.63;32.45
20.15;56.52;-0.76;4.68;-0.76;43.78
24.18;56.52;0.87;10.35;0.00;22.76
16.88;56.52;7.30;9.47;4.03;42.91
16.88;49.33;2.40;20.80;-0.76;26.79
13.72;36.37;7.30;2.29;-4.03;9.91
5.66;19.49;0.87;-1.74;-7.19;1.09
-8.93;5.77;-0.76;-1.74;-1.63;-23.96
-14.48;-20.04;-1.63;-6.64;-5.66;-19.93
-5.66;-24.83;-1.63;-3.38;-7.19;-30.38
-16.99;-44.98;-1.63;-6.64;-3.16;-29.51
-22.54;-50.64;21.02;-6.64;-0.76;-27.12
-14.48;-48.13;-5.66;-5.01;-20.15;-42.47
-16.99;-46.61;4.03;-3.38;0.00;-48.90
-21.02;-31.25;-5.66;3.05;3.27;-35.17
-15.35;-39.31;-1.63;3.05;4.90;-20.69
-4.03;-28.10;-5.66;1.42;-8.82;-13.39
3.16;-9.47;-0.76;0.65;4.90;34.85
11.22;6.64;7.30;-1.74;4.03;22.76
4.03;22.76;-0.76;6.32;4.03;32.45
12.85;26.79;2.40;-0.11;-1.63;52.60
20.91;55.76;0.87;4.68;-1.63;52.60
24.94;59.79;-12.85;-0.11;-3.16;45.41
16.88;52.49;3.27;10.35;-1.63;39.75
18.51;55.76;2.40;-0.11;-4.03;38.11
11.22;41.27;-4.79;2.29;-6.43;5.88
3.16;19.49;3.27;-6.64;-5.66;1.09
9.69;5.01;-1.63;-2.61;-0.76;-19.06
-2.40;-14.37;-0.76;-1.74;-3.16;-25.48
-5.66;-20.80;-1.63;-4.14;-1.63;-24.72
-7.30;-39.31;-4.03;-5.77;1.63;-38.44
-17.75;-49.00;-4.03;-2.61;-3.16;-49.66
-15.35;-57.06;-4.79;18.40;1.63;-48.13
-18.51;-50.64;-2.40;-7.41;0.87;-29.51
-22.54;-50.64;-5.66;-1.74;12.96;-36.05
-21.02;-35.28;-5.66;-5.01;6.43;-9.37
-16.99;-30.49;-2.40;-0.11;4.03;-1.31
3.16;-7.95;2.40;2.29;4.03;26.79
5.66;5.01;0.00;-0.11;4.03;50.97
8.82;45.30;-1.63;-1.74;3.27;38.11
13.72;45.30;0.87;2.29;-1.63;45.41
21.78;54.12;0.87;1.42;-0.76;40.51
26.57;54.99;10.45;1.42;-1.63;23.63
24.18;54.12;4.03;5.44;-14.48;24.39
17.75;67.84;3.27;-2.61;-3.16;17.97
-0.00;74.27;0.00;2.29;3.27;13.18
3.16;26.79;0.87;-2.61;-4.79;2.72
3.16;6.64;-1.63;-2.61;-4.79;-19.93
-13.72;-11.98;-0.76;-0.11;-2.40;-24.72
-5.66;-20.80;-15.25;-0.11;-1.63;-13.39
-17.75;-29.62;0.00;-1.74;-16.88;-33.54
-13.72;-46.61;-3.16;-2.61;1.63;-41.60
-21.78;-53.80;-1.63;-5.77;0.00;-49.66
-20.15;-57.83;-1.63;-5.01;4.03;-39.20
-31.47;-46.61;-3.16;-2.61;3.27;-35.17
-10.45;-41.71;-3.16;-3.38;-0.76;-34.41
-6.43;-22.43;-1.63;-2.61;1.63;-19.06
0.76;-11.98;-3.16;-1.74;-0.76;-32.02
8.82;7.41;3.27;-1.74;-0.76;12.31
3.16;15.46;-0.76;5.44;-12.85;30.82
16.12;34.85;2.40;-0.98;4.03;40.51
17.75;54.12;-12.09;6.32;2.40;44.54
18.51;62.18;0.87;8.71;1.63;44.54
12.09;54.12;3.27;6.32;-1.63;49.44
20.15;51.73;8.06;1.42;-1.63;35.72
15.25;38.88;16.99;-1.74;-1.63;19.60
4.03;18.73;5.66;-1.74;4.03;6.64
3.16;5.01;-1.63;-2.61;-4.79;-5.34
-8.06;-16.77;-21.78;-7.41;-13.61;-17.42
-11.33;-28.10;-3.16;0.65;-11.22;-20.69
-10.45;-45.74;13.72;-1.74;-12.85;-48.13
-18.51;-54.67;-0.76;-2.61;-5.66;-38.44
-23.41;-59.46;-2.40;-6.64;-4.79;-16.66
-14.48;-55.43;-7.19;-5.01;-0.76;-52.16
-21.02;-59.46;-1.63;-4.14;-0.76;-42.47
-12.96;-34.52;-5.66;-0.11;2.40;-12.63
-1.63;-20.80;-1.63;2.29;3.27;8.28
1.63;-5.44;12.09;1.42;-4.03;16.33
3.16;30.82;-1.63;-17.10;1.63;25.26
3.16;30.82;-1.63;30.49;4.03;38.88
14.48;44.43;2.40;3.92;-1.63;47.81
15.25;54.99;7.30;3.92;-4.03;43.78
14.48;50.97;2.40;7.08;-6.43;26.03
12.09;47.70;3.27;3.05;-10.45;38.88
15.25;17.10;4.03;5.44;0.00;26.79
23.30;42.04;18.51;0.65;-0.76;11.54
5.66;26.79;0.00;2.29;-1.63;1.09
3.16;2.61;2.40;-0.11;-16.12;-10.24
-1.63;-12.74;-1.63;-2.61;1.63;-12.63
-2.40;-20.80;-1.63;-4.14;1.63;-22.32
-11.33;-20.80;0.00;-3.38;1.63;-42.47
-21.02;-45.74;-6.43;-10.67;1.63;-61.75
-21.78;-59.46;-9.69;-7.41;4.90;-41.60
-21.02;-50.64;-28.97;2.29;4.03;-50.53
-48.35;-58.70;-2.40;-3.38;5.66;-33.54
-10.45;-39.31;7.30;-0.11;4.90;-21.45
-7.30;-23.20;-1.63;-0.98;4.03;-17.42
12.09;-3.92;-3.16;3.05;5.66;9.15
1.63;14.70;-16.12;2.29;4.03;-9.37
4.03;19.49;-0.76;-1.74;4.03;26.79
12.09;35.61;2.40;5.44;3.27;28.42
20.15;52.49;2.40;2.29;0.00;51.84
23.30;57.39;6.43;2.29;-1.63;50.20
14.48;49.33;9.69;6.32;-3.16;23.63
16.12;41.27;6.43;-2.61;-7.19;26.79
8.82;35.61;-3.16;-2.61;-9.69;14.70
2.40;22.76;3.27;5.44;-6.43;14.70
1.63;5.77;-1.63;-5.01;-3.16;19.60
-4.03;-10.35;0.00;0.65;-0.76;-20.69
-8.06;-20.80;-1.63;0.65;-4.03;-33.54
-8.06;-42.58;0.00;-2.61;4.03;-37.57
-11.33;-52.16;0.87;-2.61;-6.43;-45.63
-25.05;-57.83;-3.16;-13.83;1.63;-44.87
-21.78;-57.83;-4.03;14.37;-0.76;-48.13
-8.93;-51.40;-3.16;-0.98;1.63;-35.17
-10.45;-44.98;-1.63;4.68;4.03;-11.00
0.76;-23.20;-1.63;5.44;6.43;0.22
-4.03;-7.95;0.00;7.95;4.03;18.73
3.16;5.77;-1.63;4.68;1.63;12.31
6.43;20.26;6.43;8.71;4.03;13.94
15.25;38.01;2.40;4.68;4.03;26.79
24.18;56.52;4.03;10.35;2.40;42.14
18.51;30.82;2.40;2.29;-13.61;43.78
16.12;50.97;0.87;3.05;-6.43;62.29
23.30;47.70;9.69;2.29;-0.76;50.20
10.45;43.67;3.27;-0.98;4.03;26.79
3.16;30.82;2.40;-1.74;-0.76;7.51
-1.63;7.41;1.63;-2.61;-1.63;-11.87
-4.03;17.10;-1.63;-0.98;1.63;-16.66
-2.40;-24.07;-27.33;-2.61;4.03;-40.08
-16.99;-44.98;-1.63;-4.14;2.40;-36.81
-22.54;-89.30;-1.63;-0.98;2.40;-47.26
-20.15;-61.09;-1.63;-1.74;5.66;-33.54
-7.30;-47.37;-5.66;-2.61;4.90;-37.57
-7.30;-51.40;-1.63;-1.74;1.63;-32.02
-5.66;-40.08;-4.79;-1.74;-0.76;-35.17
-5.66;-24.07;-1.63;3.05;0.00;6.64
-1.63;-6.32;0.00;4.68;-3.16;2.72
3.16;9.04;-0.76;3.05;-1.63;9.15
8.82;26.79;2.40;6.32;3.27;13.18
12.09;42.04;-1.63;7.08;0.00;40.51
13.72;54.99;2.40;-24.28;3.27;48.57
17.75;65.45;4.03;1.42;0.87;34.85
16.12;71.00;3.27;5.44;21.78;35.72
26.57;50.97;1.63;18.40;18.51;38.11
8.06;39.64;-18.51;4.68;-4.03;26.79
8.82;29.95;8.93;-1.74;0.00;8.28
-7.30;10.67;-1.63;0.65;2.40;-12.63
0.76;-9.47;-0.76;-3.38;0.00;-22.32
-5.66;-23.20;0.87;7.95;-4.03;-27.12
-8.93;-58.70;-1.63;-2.61;0.00;-48.90
-16.12;-47.37;-1.63;-5.01;1.63;-50.53
-17.75;-58.70;-4.79;-0.98;-4.03;-46.50
-19.38;-54.67;-5.66;-0.11;0.00;-50.53
-22.54;-50.64;-2.40;-1.74;5.66;-38.44
-8.06;-33.65;-2.40;-3.38;6.43;-19.93
-7.30;-22.43;-1.63;-3.38;8.06;3.48
0.76;-11.98;-8.82;-0.11;11.33;22.00
3.16;30.82;-0.76;1.42;1.63;15.57
4.03;26.79;-1.63;1.42;4.03;19.60
8.06;36.37;-0.76;9.47;4.90;51.84
20.15;54.99;5.66;14.37;2.40;51.84
18.51;57.39;5.66;6.32;3.27;54.23
24.94;52.49;6.43;1.42;1.63;52.60
17.75;58.15;8.93;5.44;-7.19;40.51
5.66;30.82;-0.76;2.29;-31.36;19.60
3.16;19.49;-1.63;1.42;-7.19;-6.97
1.63;1.74;-1.63;-4.14;-7.19;-23.96
-5.66;-17.53;0.00;-1.74;-6.43;-32.02
-5.66;-21.56;-2.40;-3.38;-12.85;-52.93
-18.51;-49.00;-2.40;-2.61;-4.03;-50.53
-1.63;-54.67;-4.03;-6.64;-3.16;-57.72
-23.41;-52.16;-5.66;-0.98;-24.94;-49.66
-10.45;-47.37;-4.03;-5.01;4.03;-41.60
-12.96;-50.64;-1.63;-4.14;4.03;-36.05
-10.45;-43.34;-4.03;-11.43;4.03;-11.87
-11.33;-31.25;-24.18;-0.98;2.40;-30.38
15.25;-3.05;-1.63;5.44;4.03;22.00
2.40;10.67;-0.76;1.42;0.00;26.79
3.16;17.10;0.87;3.92;2.40;56.63
20.15;36.37;-0.76;-0.98;4.03;42.14
15.25;54.12;9.69;9.47;-1.63;50.97
17.75;66.97;3.27;3.05;0.00;44.54
20.91;46.94;3.27;3.92;-1.63;42.14
15.25;49.33;7.30;-8.17;-3.16;37.35
12.09;33.21;2.40;-22.76;-4.79;22.00
16.12;25.92;-4.03;-3.38;-7.19;18.73
3.16;5.77;14.48;-3.38;-8.06;-22.32
2.40;-11.98;-1.63;-7.41;-1.63;-22.32
-11.33;-20.80;-1.63;1.42;1.63;-24.72
-21.02;-33.65;-1.63;-6.64;-1.63;-43.23
-23.41;-51.40;-3.16;-12.20;4.03;-45.63
4.79;-51.40;-4.79;-19.49;4.90;-25.48
-15.35;-48.13;-21.78;-9.80;9.69;-24.72
-0.87;-46.61;-3.16;-8.17;1.63;-36.05
0.76;-36.05;-3.16;-7.41;9.69;-20.69
-6.43;-25.59;-3.16;-2.61;3.27;-13.39
2.40;-6.32;-11.22;-4.14;8.06;0.22
3.16;6.64;0.87;-4.14;4.03;0.22
6.43;25.92;1.63;-1.74;0.00;2.72
28.21;42.04;-1.63;-0.11;-0.76;7.51
14.48;50.97;3.27;6.32;-9.69;32.45
17.75;26.79;5.66;5.44;-6.43;39.75
14.48;48.46;3.27;0.65;-9.69;42.14
-3.27;45.30;0.87;1.42;-4.79;30.06
11.22;41.27;1.63;6.32;-10.45;23.63
4.03;20.26;-3.16;-0.98;-8.06;3.48
-4.03;5.77;3.27;-0.98;-11.22;-30.38
-5.66;-11.98;-27.33;-2.61;-8.06;-11.87
-7.30;-21.56;-2.40;3.05;-4.79;-16.66
-12.09;-42.58;-1.63;-7.41;-4.03;-36.81
-17.75;-53.80;-1.63;-3.38;3.27;-27.12
-14.48;-53.80;-3.16;-11.43;4.03;-25.48
-21.78;-54.67;-6.43;-27.55;8.93;-35.17
-15.35;-49.00;-8.82;-5.01;4.03;-6.97
-13.72;-44.98;-5.66;-4.14;4.03;-15.03
-1.63;-20.80;-4.03;-2.61;6.43;-2.94
3.16;-5.44;-4.03;7.95;4.03;9.91
4.79;9.04;-23.30;-0.98;-8.06;18.73
8.06;21.13;0.00;3.05;4.03;22.00
3.16;39.64;-19.28;6.32;3.27;39.75
13.72;46.06;5.66;8.71;4.03;35.72
19.28;50.09;-0.76;10.35;-0.76;30.82
2.40;55.76;0.00;7.95;-7.19;53.47
13.72;55.76;7.30;-0.98;-3.16;46.94
11.22;43.67;7.30;8.71;-8.82;26.79
12.09;29.19;3.27;-0.11;-7.19;17.97
3.16;3.38;0.87;-13.83;-6.43;1.09
-4.03;-18.40;0.00;-3.38;-7.19;-14.27
-11.33;-37.68;-0.76;-4.14;-9.69;-24.72
-21.02;-42.58;-3.16;-1.74;0.00;-61.75
-19.38;-48.13;-1.63;-3.38;-4.79;-76.34
-26.57;-57.83;-2.40;-2.61;-3.16;-70.68
-18.51;-49.00;-1.63;1.42;3.27;-94.85
-18.51;-53.80;-4.79;0.65;-0.76;-52.93
-12.96;-34.52;-4.79;-0.11;2.40;-14.27
-4.90;-20.80;0.87;-4.14;4.03;-4.57
0.76;-8.71;-2.40;-0.11;4.03;3.48
8.06;5.01;-1.63;4.68;8.06;26.03
5.66;22.76;3.27;-0.98;4.03;24.39
55.54;43.67;-12.09;6.32;4.03;50.20
17.75;59.79;4.03;25.59;2.40;45.41
16.88;56.52;0.87;2.29;4.03;34.85
15.25;51.73;2.40;1.42;2.40;38.11
11.22;43.67;4.90;-0.11;3.27;35.72
7.19;36.37;0.00;-0.11;-3.16;22.00
5.66;24.28;2.40;-3.38;-6.43;1.09
0.76;5.01;0.87;-3.38;-16.12;-11.87
-10.45;-10.35;3.27;-4.14;-4.03;-2.94
-6.43;-28.10;-0.76;-15.46;-4.03;-16.66
-11.33;-46.61;0.87;-7.41;0.00;-38.44
-42.69;-84.40;-2.40;-9.80;-6.43;-40.08
-22.54;-52.16;-4.03;-4.14;0.00;-11.00
-12.96;-53.03;-4.03;-3.38;14.48;-30.38
-21.78;-56.19;-4.03;-29.19;4.03;-32.02
-17.75;-37.68;-4.03;-7.41;4.03;-13.39
-18.51;-25.59;-3.16;-2.61;-4.79;3.48
-9.69;-8.71;-1.63;-0.11;19.38;13.18
7.19;9.80;-0.76;18.40;2.40;17.97
34.63;25.92;0.87;2.29;3.27;26.79
39.42;43.67;0.00;7.95;-0.76;22.00
16.12;46.06;-1.63;6.32;-3.16;47.81
8.06;56.52;1.63;3.05;0.00;26.79
16.12;55.76;3.27;5.44;-8.06;35.72
24.94;56.52;8.93;6.32;-0.76;35.72
28.97;41.27;5.66;9.47;0.87;17.97
10.45;24.28;2.40;7.08;-9.69;21.24
3.16;3.38;-1.63;1.42;-6.43;3.48
-0.87;-13.50;-4.03;-3.38;-4.03;-16.66
-12.09;-23.20;-1.63;-3.38;-4.79;-42.47
-5.66;-20.80;-1.63;-3.38;-3.16;-55.32
-14.48;-53.80;-6.43;-0.11;2.40;-76.34
-21.02;-69.91;-3.16;1.42;1.63;-50.53
-20.15;-54.67;-7.19;-0.98;-7.19;-35.17
-11.33;-48.13;-4.79;-0.98;-6.43;-16.66
-3.27;-18.40;-1.63;2.29;4.03;-6.21
-5.66;-22.43;0.87;-2.61;5.66;-14.27
-10.45;-15.14;-1.63;33.65;1.63;1.09
-1.63;10.67;-5.66;6.32;4.03;8.28
-8.93;33.21;-2.40;11.11;4.03;24.39
8.06;41.27;3.27;7.08;4.03;41.38
18.51;66.97;1.63;3.05;4.03;49.44
23.30;34.85;2.40;3.92;5.66;43.78
20.15;54.99;3.27;-15.46;-1.63;45.41
0.76;47.70;3.27;3.05;-3.16;38.88
13.72;34.85;-19.28;1.42;-4.79;25.26
16.88;20.26;0.00;-0.11;-6.43;8.28
3.16;0.98;0.87;-1.74;-4.03;-10.24
-4.90;-16.01;2.40;2.29;-4.79;8.28
-4.90;-20.80;-3.16;-4.14;-4.03;-24.72
-11.33;-44.98;-1.63;1.42;5.66;-38.44
-21.78;-53.80;-4.03;0.65;2.40;-44.87
8.06;-59.46;-1.63;-3.38;1.63;-49.66
-15.35;-50.64;-4.03;-3.38;17.75;-52.93
-14.48;-58.70;-1.63;-10.67;4.03;-41.60
-9.69;-32.02;-3.16;4.68;4.03;-6.97
-8.06;-25.59;-4.79;-4.14;5.66;22.76
-4.90;-5.44;-4.03;-6.64;1.63;26.79
3.16;13.07;21.78;7.95;2.40;30.06
11.22;40.40;-1.63;-24.28;4.03;14.70
8.82;42.91;-0.76;1.42;-1.63;9.91
13.72;57.39;1.63;2.29;3.27;0.22
17.75;56.52;4.03;-2.61;0.00;22.00
45.96;23.52;1.63;-0.11;-5.66;31.69
21.78;54.99;7.30;5.44;-6.43;35.72
16.12;39.64;4.03;-1.74;-9.69;26.03
4.79;21.89;10.45;-2.61;-4.79;1.09
3.16;7.41;3.27;-3.38;-7.19;-8.60
-1.63;-7.08;-1.63;-3.38;-6.43;-15.90
-4.90;-20.80;-1.63;7.95;2.40;-25.48
-11.33;-40.95;-24.94;-3.38;-1.63;-44.87
-17.75;-48.13;-14.48;-8.17;0.00;-44.87
-20.15;-58.70;-1.63;-1.74;1.63;-47.26
-17.75;-50.64;12.09;-0.98;2.40;-34.41
-23.41;-46.61;-4.79;-10.67;0.00;-28.75
-11.33;-42.58;-1.63;-5.01;2.40;-17.42
-5.66;-26.46;-1.63;5.44;4.03;-7.84
8.06;-7.08;-1.63;24.83;2.40;5.88
2.40;12.20;-1.63;4.68;9.69;19.60
3.16;20.26;0.87;6.32;4.03;33.32
12.09;36.37;3.27;3.05;-0.76;50.20
18.51;50.97;5.66;-2.61;-1.63;52.60
24.18;61.42;4.03;1.42;-1.63;50.20
16.12;25.92;4.03;-3.38;-4.79;38.88
21.78;46.06;5.66;7.95;-4.79;64.69
17.75;31.58;12.09;4.68;-4.79;23.63
4.79;22.76;2.40;-1.74;1.63;5.88
-0.87;5.01;-0.76;-3.38;0.00;-4.57
1.63;-12.74;3.27;-2.61;2.40;-9.37
-2.40;-20.04;-1.63;-1.74;5.66;-12.63
-5.66;-40.95;-1.63;-4.14;4.03;-36.05
-22.54;-51.40;-4.03;-4.14;-1.63;-48.90
-19.38;-60.22;-5.66;-0.98;1.63;-50.53
-16.99;-63.49;-10.45;-2.61;2.40;-52.16
-20.15;-57.06;-4.03;-5.77;4.03;-53.69
-4.90;-13.50;-4.79;-2.61;4.03;-27.99
-0.87;-22.43;-2.40;6.32;-5.66;-30.38
3.16;-7.08;0.87;2.29;-3.16;-6.97
-29.84;6.64;-0.76;1.42;2.40;16.33
2.40;25.92;-0.76;1.42;4.03;26.03
14.48;40.40;2.40;4.68;3.27;41.38
18.51;54.12;4.03;7.95;4.90;52.60
28.21;55.76;7.30;6.32;4.03;83.20
28.21;60.55;4.03;20.80;2.40;51.84
20.15;52.49;2.40;-2.61;-8.06;34.09
8.82;40.40;8.93;-0.11;-8.82;13.18
2.40;23.52;-1.63;1.42;-4.03;-6.21
3.16;6.64;8.93;2.29;-5.66;-1.31
-5.66;-16.01;-7.19;3.05;-1.63;0.22
-13.72;-21.56;-1.63;-1.74;4.03;-25.48
8.82;-40.95;-1.63;-1.74;2.40;-37.57
-22.54;-54.67;-4.03;-4.14;0.00;-47.26
-26.57;-51.40;-4.03;-0.11;2.40;-29.51
-16.99;-51.40;-2.40;2.29;-1.63;-22.32
-4.90;-49.00;-1.63;-0.11;-25.70;-26.35
-0.87;-36.05;7.30;-2.61;4.03;-8.60
3.16;-22.43;-2.40;5.44;6.43;1.09
4.03;-7.95;-1.63;4.68;22.54;21.24
2.40;3.38;-2.40;-0.98;4.03;3.48
2.40;-2.29;0.87;-1.74;2.40;15.57
3.16;42.04;2.40;1.42;1.63;29.29
16.12;71.87;0.87;-0.98;-3.16;43.78
16.88;33.21;1.63;2.29;-19.28;51.84
18.51;46.06;-0.76;0.65;-1.63;51.84
15.25;42.04;0.87;6.32;12.96;32.45
8.82;39.64;-0.76;0.65;-5.66;-9.37
4.03;19.49;4.03;-4.14;-7.19;1.09
2.40;29.95;2.40;-0.11;-6.43;-37.57
-4.03;-6.32;-1.63;-9.80;-7.19;-38.44
-13.72;-26.46;8.93;-7.41;-9.69;-17.42
-19.38;-42.58;-5.66;1.42;-3.16;-23.09
-16.99;-46.61;-2.40;-5.01;-3.16;-50.53
-14.48;-46.61;-3.16;-1.74;-13.61;-44.87
-14.48;-49.00;-2.40;-0.98;4.90;-45.63
-14.48;-53.80;-7.19;-16.23;4.03;-36.05
-12.09;-35.28;-2.40;3.05;8.06;-13.39
-0.87;-20.04;-0.76;10.35;6.43;-11.00
4.03;-7.95;-1.63;-1.74;3.27;1.09
1.63;10.67;0.00;3.05;4.03;1.09
8.82;17.10;-1.63;3.05;4.90;34.09
14.48;25.92;4.03;6.32;0.00;63.92
16.12;52.49;-15.25;7.08;-4.03;56.63
16.12;54.99;7.30;5.44;-11.22;35.72
16.12;46.06;21.78;6.32;-11.22;56.63
16.88;49.33;3.27;5.44;-9.69;29.29
13.72;33.98;4.03;5.44;-3.16;19.60
10.45;29.95;-0.76;3.05;-4.79;-4.57
3.16;30.82;-1.63;-9.80;-3.16;-9.37
-4.90;-11.98;-1.63;-4.14;-0.76;-17.42
-7.30;-19.17;22.54;-0.98;-6.43;-11.00
-20.15;-38.55;-6.43;-2.61;-6.43;-35.17
-22.54;-53.80;2.40;-2.61;-3.16;-32.78
-16.99;-52.16;-1.63;-0.98;-0.76;-36.05
-9.69;-45.74;-3.16;-1.74;1.63;-36.05
-16.99;-47.37;-3.16;-4.14;4.03;-33.54
-12.09;-37.68;-1.63;1.42;4.90;-11.87
-17.75;-26.46;-4.03;-0.11;4.90;-1.31
4.79;-29.62;-1.63;1.42;4.03;11.54
3.16;5.01;-1.63;4.68;4.03;25.26
16.12;20.26;-1.63;3.05;2.40;52.60
28.97;37.24;10.45;7.08;0.00;31.69
12.09;50.97;-0.76;-0.11;1.63;26.79
11.22;54.99;5.66;-0.11;-0.76;41.38
11.22;54.99;7.30;-3.38;0.00;39.75
13.72;54.12;4.90;8.71;0.00;34.85
20.91;41.27;25.05;-0.98;4.03;19.60
4.79;29.95;-9.69;1.42;1.63;1.09
3.16;4.14;16.12;-2.61;-3.16;-13.39
-0.87;-23.20;-0.76;-4.14;0.00;-23.96
-4.03;-20.80;-1.63;-3.38;-3.16;-25.48
-20.15;-46.61;-1.63;-6.64;-4.03;-52.93
-15.35;-50.64;-5.66;-9.04;-6.43;-75.47
-16.99;-50.64;-1.63;-8.17;-4.79;-64.25
-14.48;-50.64;-5.66;-2.61;-3.16;-51.29
-16.99;-51.40;16.12;-5.01;1.63;-27.99
-9.69;-33.65;-7.19;-0.98;-3.16;-24.72
11.22;-20.80;-3.16;-4.14;-4.03;-32.78
-3.27;-8.71;-5.66;10.35;3.27;1.09
3.16;8.17;-1.63;4.68;4.03;17.97
4.79;21.89;-1.63;-0.98;4.03;52.60
15.25;47.70;3.27;-16.23;-3.16;52.60
37.03;51.73;3.27;2.29;-4.79;28.42
20.91;65.45;7.30;6.32;-1.63;51.84
12.09;28.31;7.30;-0.11;19.38;37.35
5.66;43.67;2.40;-0.98;-0.76;29.29
2.40;30.82;5.66;2.29;-3.16;22.76
5.66;23.52;0.87;-0.98;-3.16;13.18
15.25;5.01;0.00;-6.64;-3.16;9.15
-10.45;-18.40;16.12;-5.01;-3.16;-2.94
-7.30;-22.43;-0.76;-25.92;4.03;-12.63
-4.90;-47.37;-3.16;-30.82;1.63;-46.50
-36.26;-49.77;-7.19;17.53;0.00;-52.93
-9.69;-57.83;-4.03;-9.80;-8.06;-60.22
-16.99;-47.37;-1.63;2.29;-1.63;-64.25
-8.93;-52.16;-1.63;4.68;1.63;-44.87
-8.93;-34.52;-1.63;-2.61;3.27;-16.66
-1.63;-20.04;-4.03;6.32;4.03;-4.57
-31.47;20.26;-2.40;5.44;3.27;17.97
11.22;9.04;-4.03;3.05;4.03;8.28
3.16;40.40;-0.76;-0.11;8.93;26.79
8.82;43.67;3.27;6.32;-8.06;38.11
10.45;51.73;2.40;5.44;-5.66;52.60
15.25;56.52;4.03;4.68;-4.79;40.51
-0.87;55.76;2.40;5.44;-1.63;36.48
15.25;50.97;-1.63;3.05;-6.43;34.85
2.40;35.61;-1.63;3.05;-4.79;11.54
-15.35;21.89;-1.63;9.47;3.27;-2.94
5.66;10.67;0.87;-28.31;-6.43;-18.30
-4.90;-15.14;-1.63;-1.74;-4.03;-13.39
-4.03;-23.20;-1.63;-1.74;0.00;-27.12
-45.96;-22.43;-1.63;-5.01;4.90;-44.10
-9.69;-53.80;-8.82;-11.43;8.06;-41.60
-14.48;-54.67;-4.79;-4.14;-0.76;-50.53
-17.75;-51.40;-4.03;34.52;1.63;-45.63
-14.48;-51.40;-30.60;-3.38;2.40;-35.17
-9.69;-41.71;-2.40;-4.14;2.40;-13.39
-4.90;-24.83;-3.16;3.05;0.00;-6.21
-4.90;-7.08;-1.63;-1.74;-3.16;15.57
2.40;6.64;0.00;5.44;3.27;15.57
7.19;29.95;3.27;-21.13;3.27;30.06
-10.45;42.91;-0.76;8.71;1.63;52.60
14.48;71.00;0.87;-0.11;-0.76;40.51
8.06;54.99;1.63;-2.61;-5.66;45.41
16.88;49.33;0.00;5.44;-4.03;40.51
24.94;54.12;4.90;7.08;-0.76;37.35
16.88;39.64;2.40;2.29;-6.43;15.57
4.79;20.26;3.27;-0.98;-9.69;-11.87
0.76;0.98;-1.63;-2.61;-7.19;-33.54
-4.90;-13.50;0.00;-5.01;-4.03;-23.09
-4.90;-20.80;0.00;-3.38;-4.79;-7.84
-12.96;-44.10;-1.63;-4.14;-3.16;-32.78
-17.75;-55.43;-3.16;-0.11;-4.79;-52.16
-21.78;-60.22;-3.16;-6.64;-8.82;-51.29
-21.02;-57.06;-3.16;-6.64;-6.43;-52.16
-15.35;-60.22;-5.66;-4.14;-4.79;-32.02
-10.45;-32.89;-6.43;-5.77;4.03;-24.72
-10.45;-21.56;-9.69;-2.61;4.90;-1.31
-4.90;-3.92;-1.63;-4.14;4.90;14.70
5.66;8.17;0.87;2.29;4.03;28.42
4.03;21.89;0.87;10.35;4.03;30.82
16.88;43.67;0.00;-2.61;-18.51;38.88
16.88;49.33;0.87;-11.43;4.03;37.35
13.72;54.12;-9.69;3.05;4.03;31.69
16.12;49.33;-2.40;-0.11;-3.16;35.72
16.88;48.46;4.03;3.05;-3.16;34.85
12.09;33.21;4.03;1.42;16.99;26.03
3.16;22.76;5.66;-0.98;1.63;13.18
1.63;9.80;24.18;-2.61;0.00;-12.63
-5.66;-9.47;13.72;-2.61;-4.03;-22.32
-7.30;-20.80;0.00;0.65;-1.63;-28.75
-5.66;-37.68;-2.40;-5.01;3.27;-33.54
-13.72;-48.13;-5.66;-2.61;3.27;-27.12
-13.72;-57.83;-10.45;1.42;0.00;-24.72
-20.15;-56.19;-7.19;-6.64;4.90;-30.38
-16.99;-50.64;-7.19;-8.17;4.90;-30.38
-17.75;-45.74;-2.40;-29.19;4.90;-35.17
-10.45;-26.46;8.06;2.29;-0.76;-35.17
-1.63;-7.95;-1.63;2.29;0.00;3.48
-1.63;2.61;1.63;2.29;-1.63;2.72
1.63;22.76;-0.76;1.42;4.03;31.69
11.22;29.95;0.00;9.47;8.06;41.38
23.30;56.52;3.27;1.42;4.03;48.57
23.30;55.76;6.43;6.32;-3.16;31.69
-0.87;34.85;4.03;12.74;-4.79;26.79
20.91;54.12;0.00;2.29;-10.45;23.63
7.19;43.67;2.40;-3.38;-13.61;6.64
3.16;28.31;13.72;-0.98;-8.06;15.57
-2.40;4.14;-1.63;-2.61;-0.76;-5.34
-11.33;-16.77;-0.76;-2.61;-5.66;-6.21
-1.63;-23.20;-0.76;-0.98;-1.63;-23.96
-0.87;-36.92;0.00;-0.11;-3.16;-49.66
-15.35;-52.16;-6.43;22.43;0.00;-35.17
-22.54;-58.70;-2.40;-5.01;8.06;-36.81
-10.45;-53.80;-9.69;2.29;6.43;-36.81
0.76;-46.61;-6.43;-2.61;9.69;-30.38
-4.90;-33.65;-3.16;-2.61;4.03;-15.90
1.63;-25.59;-1.63;3.92;4.03;1.09
2.40;-7.95;-1.63;7.95;-1.63;26.79
4.03;9.80;-18.51;6.32;1.63;28.42
5.66;17.10;-1.63;9.47;2.40;46.94
15.25;39.64;0.00;6.32;-6.43;23.63
16.12;25.16;0.00;8.71;4.03;43.78
13.72;56.52;5.66;11.11;-6.43;29.29
16.12;56.52;0.00;-3.38;-5.66;31.69
20.91;55.76;4.03;2.29;0.00;31.69
10.45;33.21;2.40;-1.74;-5.66;13.94
7.19;20.26;0.87;-1.74;-0.76;-1.31
-35.50;9.04;0.87;4.68;-4.79;-12.63
-4.03;-15.14;2.40;1.42;0.00;-38.44
-4.03;-24.07;-0.76;0.65;0.87;-32.02
-10.45;-40.95;-2.40;-5.01;0.00;-46.50
-13.72;-48.13;-2.40;-9.80;0.00;-39.20
-21.78;-57.06;-4.79;-29.95;4.03;-39.20
-14.48;-50.64;-3.16;-1.74;0.00;-49.66
-20.15;-49.00;-8.82;-1.74;4.03;-35.17
-16.99;-40.95;-4.03;-0.98;4.03;-15.90
-8.06;-27.22;-2.40;7.95;14.48;8.28
1.63;-4.68;-4.03;1.42;1.63;22.00
15.25;12.20;-0.76;5.44;4.03;39.75
7.19;-9.47;0.00;4.68;0.00;25.26
17.75;34.85;-0.76;5.44;-8.06;32.45
24.18;49.33;-1.63;7.08;-4.03;25.26
15.25;64.58;5.66;10.35;-21.67;16.33
37.03;50.09;7.30;10.35;-0.76;17.97
24.18;47.70;10.45;1.42;-3.16;30.82
11.22;30.82;2.40;-5.01;-18.51;5.12
-21.02;27.55;3.27;-2.61;0.00;-15.90
1.63;5.01;0.87;-2.61;-3.16;-16.66
-2.40;-6.32;-1.63;2.29;-16.88;1.09
-5.66;-20.80;-1.63;-9.80;-0.76;5.12
-12.09;-41.71;-4.03;-2.61;-0.76;-26.35
-18.51;-57.06;-2.40;-40.40;-8.06;-41.60
-16.99;-60.22;-5.66;-7.41;-22.54;-53.69
-20.15;-51.40;-7.19;3.05;6.43;-50.53
-20.15;-59.46;-1.63;-6.64;4.03;-47.26
-9.69;-35.28;-6.43;-2.61;3.27;-32.02
-27.44;-28.86;-5.66;5.44;-21.67;-6.21
-0.87;-7.08;-1.63;-5.01;-4.03;23.63
3.16;8.17;24.18;-4.14;0.00;0.22
8.06;20.26;0.87;1.42;-3.16;34.85
5.66;41.27;2.40;7.95;-7.19;40.51
8.82;56.52;16.12;2.29;-4.03;39.75
15.25;57.39;4.03;5.44;-7.19;35.72
-5.66;82.33;3.27;-7.41;3.27;44.54
5.66;52.49;-4.79;3.05;-0.76;30.82
10.45;35.61;1.63;1.42;-3.16;28.42
3.16;21.89;0.87;-0.98;-1.63;11.54
3.16;28.31;0.00;-0.11;-3.16;-4.57
-0.87;-11.98;-0.76;-1.74;-6.43;-14.27
-13.72;-22.43;-2.40;-1.74;-1.63;-19.06
-12.09;-41.71;-4.03;-2.61;-1.63;-32.02
4.79;-57.06;15.35;5.44;1.63;-45.63
-12.09;-61.09;-4.03;16.01;4.03;-46.50
-13.72;-54.67;-5.66;-0.98;14.48;-46.50
-21.78;-50.64;-7.19;-0.11;3.27;-33.54
-12.09;-59.46;-2.40;-11.43;0.00;-11.87
-5.66;-28.10;-1.63;-0.11;4.03;1.85
-8.06;-7.95;-1.63;3.92;4.03;21.24
-4.90;5.01;-1.63;2.29;2.40;50.97
8.06;24.28;-1.63;5.44;4.03;39.75
20.15;43.67;0.00;9.47;-1.63;35.72
27.33;29.95;7.30;10.35;3.27;35.72
28.97;58.15;5.66;10.35;-0.76;29.29
24.18;50.97;-0.76;6.32;-4.03;38.88
16.12;48.46;8.06;3.05;-24.18;36.48
15.25;34.85;1.63;-2.61;-3.16;29.29
4.03;49.33;2.40;-2.61;-6.43;2.72
2.40;5.01;3.27;-0.98;-9.69;-7.84
-0.87;-5.44;-1.63;-2.61;-10.45;-15.90
11.22;-28.86;-1.63;-0.98;-0.76;-19.93
-48.35;-46.61;-3.16;-4.14;1.63;-44.87
-16.99;-46.61;-8.06;-2.61;0.00;-41.60
-21.78;-49.00;-16.88;-2.61;-3.16;-45.63
-26.57;-53.80;-1.63;-0.98;-1.63;-41.60
-12.09;-51.40;-0.76;-0.98;4.03;-21.45
-8.06;-36.92;-1.63;-2.61;4.03;-23.09
-2.40;-25.59;-1.63;-5.01;5.66;1.09
2.40;-10.35;-1.63;4.68;3.27;26.79
7.19;10.67;-1.63;5.44;4.03;11.54
15.25;25.92;5.66;3.05;4.03;1.85
20.15;44.43;0.87;-0.11;6.43;26.03
16.88;52.49;5.66;1.42;2.40;35.72
16.12;54.12;3.27;3.05;-0.76;11.54
15.25;50.97;0.00;7.95;-4.79;13.94
27.33;51.73;4.03;-3.38;-4.79;26.79
16.88;36.37;7.30;-0.98;-3.16;19.60
12.85;30.82;1.63;0.65;-9.69;13.18
4.03;6.64;-0.76;-3.38;-9.69;-6.97
20.15;-12.74;-1.63;-3.38;12.96;-11.87
-12.09;-24.83;-1.63;-5.77;-3.16;-20.69
8.82;-45.74;-3.16;-5.77;0.00;-29.51
-12.96;-73.18;-3.16;-3.38;-4.79;-38.44
-18.51;-77.97;-2.40;-6.64;-2.40;-32.78
-21.78;-52.16;-1.63;12.74;3.27;-34.41
-17.75;-53.80;-1.63;-2.61;4.03;-28.75
-16.99;-28.10;-1.63;-2.61;5.66;-15.90
-11.33;-2.29;-1.63;-2.61;4.90;-8.60
-1.63;-7.95;-0.76;2.29;6.43;6.64
7.19;13.07;0.87;7.95;0.87;11.54
8.06;21.89;-1.63;1.42;4.03;28.42
15.25;39.64;0.00;-0.11;4.90;42.14
11.22;50.97;-0.76;7.95;0.00;42.14
38.66;57.39;17.75;7.08;2.40;50.97
16.12;47.70;-8.82;2.29;-4.79;43.78
16.12;47.70;7.30;3.05;-6.43;37.35
4.79;36.37;7.30;-8.17;-14.48;22.00
8.06;23.52;0.00;-3.38;-11.22;1.09
1.63;5.01;-0.76;-35.61;-9.69;0.22
-5.66;-6.32;-1.63;-11.43;-3.16;-15.90
-1.63;-17.53;16.99;-2.61;-3.16;-44.87
-11.33;-45.74;-2.40;16.01;-4.03;-51.29
-22.54;-51.40;-3.16;-6.64;-1.63;-71.44
-21.78;-61.09;-4.79;-5.01;5.66;-46.50
-18.51;-54.67;-3.16;-11.43;4.03;-41.60
-10.45;-50.64;-5.66;-6.64;4.03;-22.32
-9.69;-60.22;-2.40;-5.01;4.90;-18.30
-11.33;-26.46;-4.03;-2.61;5.66;0.22
-31.47;-5.44;-1.63;-3.38;4.03;5.88
12.09;5.77;-1.63;-0.98;8.06;8.28
16.12;21.89;-21.78;-0.11;0.00;12.31
25.81;39.64;2.40;6.32;2.40;30.82
24.18;53.36;-9.69;3.05;-3.16;39.75
20.15;56.52;2.40;6.32;-8.06;32.45
15.25;52.49;4.03;5.44;-6.43;70.35
20.15;56.52;4.03;0.65;-7.19;49.44
11.22;42.91;4.03;-0.11;-7.19;17.21
8.82;29.95;0.87;-37.24;-4.79;-6.97
3.16;5.01;4.03;-2.61;-5.66;-19.93
-2.40;-7.95;-1.63;-2.61;-0.76;-26.35
-11.33;-25.59;-1.63;-0.11;-6.43;-36.05
-21.02;-49.00;-3.16;-5.01;-3.16;-50.53
-21.78;-54.67;2.40;-6.64;2.40;-3.81
-12.09;-59.46;-1.63;-3.38;-16.12;-28.75
-8.93;-51.40;-5.66;-6.64;4.03;-34.41
-20.15;-51.40;-3.16;-3.38;-0.76;-33.54
-12.09;-25.59;-2.40;-17.86;3.27;-15.90
-1.63;-28.86;-2.40;-3.38;0.00;-11.00
3.16;-7.08;-4.03;-0.98;3.27;5.12
3.16;7.41;7.30;4.68;3.27;14.70
5.66;25.92;0.00;6.32;-4.03;19.60
8.82;56.52;3.27;-5.01;-3.16;26.79
13.72;30.82;0.87;5.44;-4.03;26.79
16.88;57.39;0.87;6.32;-8.06;30.82
8.06;21.89;4.03;4.68;-8.06;24.39
8.82;49.33;0.87;5.44;-7.19;54.99
13.72;33.21;4.03;-0.98;0.00;21.24
16.12;31.58;4.03;-0.98;-8.82;26.03
4.79;10.67;1.63;-8.17;-3.16;-11.87
-2.40;-21.56;-0.76;-1.74;-0.76;-7.84
-6.43;-20.80;-4.03;-2.61;-1.63;-19.93
-13.72;-49.77;-1.63;-2.61;0.00;-32.02
-20.15;-50.64;-2.40;-0.98;3.27;-40.08
-18.51;-52.16;-1.63;-15.46;-0.76;-41.60
-14.48;-50.64;-6.43;-6.64;2.40;-41.60
-12.96;-47.37;-4.79;-14.70;4.03;-40.08
-8.93;-56.19;-0.76;-5.77;9.69;-24.72
-9.69;-20.80;-1.63;1.42;4.03;-11.87
6.43;-7.95;-4.03;-1.74;5.66;1.85
4.03;13.83;-2.40;-0.11;-3.16;19.60
2.40;21.13;-0.76;8.71;1.63;29.29
14.48;39.64;2.40;9.47;6.43;48.57
31.36;53.36;-1.63;3.05;1.63;22.00
16.12;42.91;0.00;-0.98;-3.16;38.88
10.45;52.49;5.66;7.08;-7.19;35.72
14.48;31.58;0.87;6.32;-3.16;38.88
12.09;28.31;-0.76;-21.13;2.40;34.85
5.66;28.31;16.12;7.08;0.00;2.72
8.06;9.04;0.87;-5.01;-1.63;13.18
3.16;-10.35;11.33;-0.98;-8.06;-23.09
-4.03;-31.25;0.87;-36.37;-9.69;-25.48
-8.93;-35.28;-1.63;17.53;8.93;-33.54
-20.15;-49.77;-5.66;-6.64;3.27;-40.08
-18.51;-50.64;-3.16;13.50;3.27;-38.44
-13.72;-49.00;-5.66;-5.77;4.03;-32.78
-17.75;-50.64;-8.82;-2.61;5.66;-27.12
-12.09;-3.92;-4.03;-1.74;4.03;-11.87
-7.30;-24.83;-5.66;2.29;21.02;-2.18
0.76;-7.95;-1.63;-8.17;2.40;18.73
4.79;10.67;-2.40;4.68;2.40;25.26
3.16;22.76;-2.40;11.98;-0.76;26.79
11.22;42.04;-1.63;9.47;-4.03;50.97
16.88;52.49;-1.63;22.43;-4.79;48.57
8.06;56.52;0.87;7.08;2.40;38.11
12.09;56.52;0.00;6.32;-1.63;38.88
8.82;47.70;2.40;3.05;-1.63;35.72
3.16;41.27;-9.69;3.05;-0.76;14.70
0.76;20.26;0.00;2.29;0.00;12.31
3.16;5.77;0.00;-0.98;-9.69;-3.81
-1.63;-8.71;-3.16;-2.61;-9.69;-12.63
3.16;-9.47;-1.63;-1.74;-25.70;-18.30
-13.72;-40.95;11.33;-6.64;-7.19;-43.23
8.06;-49.00;-4.03;-0.98;0.00;-50.53
-14.48;-51.40;-2.40;-2.61;3.27;-46.50
-13.72;-52.16;-13.72;-1.74;3.27;-17.42
-11.33;-50.64;-3.16;2.29;4.03;-39.20
-4.03;-32.02;-1.63;-0.98;0.87;-40.08
-7.30;-21.56;-4.79;-0.11;4.03;-16.66
11.22;-5.44;-4.03;3.05;5.66;9.91
3.16;16.23;-1.63;20.80;5.66;19.60
8.06;19.49;3.27;2.29;-0.76;22.76
12.09;36.37;3.27;7.95;-9.69;26.79
9.69;50.09;6.43;2.29;-8.82;16.33
16.12;50.09;3.27;1.42;-4.79;26.79
15.25;47.70;2.40;4.68;-4.79;61.53
-0.00;49.33;7.30;-0.98;-9.69;42.91
12.09;36.37;8.93;1.42;-4.79;28.42
4.03;28.31;3.27;-0.98;-1.63;19.60
1.63;0.98;-1.63;5.44;-8.06;-7.84
-1.63;-15.14;-1.63;3.05;-4.79;-24.72
-2.40;-32.02;-0.76;-0.11;-9.69;-27.99
-8.06;-46.61;-1.63;-6.64;-3.16;-47.26
-7.30;-54.67;-4.03;16.01;2.40;-52.93
-19.38;-57.06;-8.82;-1.74;2.40;-42.47
-11.33;-50.64;13.72;-5.01;4.90;-47.26
-15.35;-53.80;-2.40;-0.98;4.90;-37.57
-13.72;-32.02;-5.66;-1.74;6.43;-12.63
-12.96;-23.20;-4.03;2.29;5.66;1.85
-7.30;-7.95;-0.76;3.05;4.03;46.17
7.19;10.67;-1.63;1.42;4.03;35.72
8.82;21.89;0.87;3.92;4.03;8.28
12.85;39.64;-4.79;-2.61;1.63;35.72
15.25;54.99;2.40;7.95;-4.79;32.45
20.15;56.52;11.33;7.95;-6.43;15.57
18.51;54.12;-0.76;-2.61;-6.43;-15.90
15.25;52.49;7.30;-0.11;5.66;22.00
9.69;42.04;1.63;-0.11;-4.79;24.39
8.82;17.86;0.87;-0.11;-0.76;-1.31
3.16;5.01;-0.76;-0.98;-4.79;-11.00
-21.02;-19.17;-1.63;-3.38;-1.63;-11.00
-12.09;-21.56;-1.63;-3.38;-1.63;-14.27
-8.93;-48.13;-1.63;-1.74;-5.66;-39.20
-13.72;-46.61;-2.40;-1.74;2.40;-37.57
-8.93;-59.46;-7.19;-4.14;-4.79;-65.78
-22.54;-54.67;16.12;-4.14;3.27;-36.81
-18.51;-46.61;-4.03;38.55;4.03;-26.35
-15.35;-37.68;-1.63;-1.74;3.27;-12.63
-5.66;-20.80;-4.03;1.42;4.03;1.09
-0.00;-5.44;-2.40;6.32;5.66;15.57
4.03;12.20;2.40;4.68;4.03;31.69
5.66;20.26;0.00;5.44;2.40;56.63
-7.30;38.88;1.63;2.29;25.05;32.45
17.75;52.49;9.69;-26.79;-5.66;29.29
15.25;46.06;2.40;-1.74;-9.69;26.79
15.25;50.97;3.27;3.05;-9.69;13.94
13.72;48.46;-1.63;2.29;-11.22;26.03
7.19;37.24;4.03;25.59;-9.69;22.00
8.82;25.16;0.87;-0.11;-3.16;15.57
-6.43;3.38;-1.63;-2.61;-1.63;1.09
-1.63;-12.74;-1.63;-0.11;0.00;-35.17
-8.93;-39.31;-0.76;-0.98;1.63;-42.47
-14.48;-40.95;-3.16;-10.67;-20.15;-60.98
-11.33;-66.76;-4.03;-7.41;-4.03;-54.56
-15.35;-51.40;-20.15;-13.07;-11.22;-51.29
-10.45;-51.40;-3.16;-11.43;-6.43;-45.63
-21.02;-57.83;-2.40;-2.61;4.90;-32.02
-4.03;-45.74;-2.40;-5.77;4.90;-12.63
-7.30;-22.43;-1.63;10.35;4.90;-1.31
2.40;-34.52;-1.63;3.05;8.93;14.70
4.79;7.41;-0.76;3.05;4.03;18.73
3.16;23.52;2.40;-1.74;0.00;28.42
8.82;56.52;6.43;10.35;12.09;37.35
11.22;51.73;2.40;9.47;3.27;31.69
10.45;56.52;7.30;6.32;-4.79;38.88
8.06;48.46;0.87;3.05;0.00;37.35
3.16;43.67;5.66;-0.98;-3.16;32.45
8.82;41.27;3.27;1.42;-4.79;26.79
13.72;27.55;-0.76;-2.61;-9.69;-2.94
10.45;7.41;3.27;-0.11;-6.43;3.48
-0.87;-18.40;0.00;-6.64;0.00;-20.69
-8.06;-19.17;0.87;-2.61;0.00;-1.31
-8.06;-40.95;-1.63;22.43;-4.79;-6.97
-16.99;-50.64;-4.03;-2.61;3.27;-30.38
-13.72;-57.06;-4.03;-7.41;3.27;-27.12
-22.54;-52.16;-8.82;-1.74;4.03;-6.97
-17.75;-48.13;-5.66;-3.38;-3.16;-45.63
-10.45;-37.68;-4.03;-5.01;-0.76;-41.60
-0.87;-21.56;-6.43;3.05;2.40;-36.05
-4.03;-16.01;2.40;0.65;0.87;-14.27
3.16;7.41;0.00;-0.98;4.03;9.91
10.45;21.89;-0.76;5.44;4.03;27.66
13.72;42.91;4.03;9.47;4.03;54.23
17.75;50.97;2.40;3.05;3.27;45.41
17.75;56.52;2.40;23.20;4.03;40.51
3.16;51.73;3.27;7.95;1.63;42.91
10.45;46.06;2.40;5.44;-1.63;31.69
16.88;42.91;0.87;3.05;-6.43;14.70
15.25;24.28;2.40;2.29;-7.19;3.48
0.76;5.01;-1.63;-3.38;-1.63;-9.37
-0.87;-13.50;4.03;2.29;0.00;-11.87
-12.09;-23.20;-13.72;-0.11;-4.03;-36.05
-8.93;-37.68;-4.03;-2.61;-3.16;-51.29
-21.02;-10.35;-1.63;-0.98;-1.63;-49.66
-17.75;-55.43;-4.03;-6.64;-9.69;-39.20
-20.15;-50.64;-8.82;-0.98;4.90;-36.05
-22.54;-44.98;-4.03;-1.74;3.27;-35.17
-10.45;-59.46;-1.63;-5.01;5.66;-22.32
-10.45;-24.07;-1.63;-2.61;4.03;-17.42
-1.63;-4.68;-5.66;-0.98;15.35;2.72
9.69;18.73;3.27;-0.98;4.03;13.94
3.16;24.28;0.00;1.42;4.90;26.79
-5.66;38.88;2.40;12.74;2.40;47.81
12.85;51.73;-0.76;7.08;0.00;59.02
18.51;55.76;6.43;1.42;3.27;50.97
15.25;47.70;0.87;6.32;1.63;46.94
18.51;50.97;7.30;-0.98;3.27;42.14
12.85;30.82;3.27;-0.98;-6.43;31.69
4.79;21.89;3.27;-0.98;-3.16;8.28
3.16;7.41;2.40;-28.31;-11.22;-22.32
-5.66;-6.32;-1.63;-6.64;-9.69;-50.53
-30.60;-22.43;-1.63;-11.43;-3.16;-40.08
-16.99;-44.10;-1.63;-4.14;1.63;-53.69
-20.15;-50.64;-1.63;-2.61;-13.61;-50.53
-14.48;-53.80;-4.03;-9.80;-0.76;-48.90
-20.15;-55.43;-2.40;23.20;-3.16;-41.60
-14.48;-51.40;-5.66;-0.98;8.93;-23.96
-8.06;-37.68;-4.03;-6.64;-4.79;-2.94
-25.05;-26.46;-4.03;-2.61;4.03;1.09
-4.03;-9.47;-4.79;-5.01;3.27;-11.87
2.40;13.07;0.87;4.68;11.33;1.85
3.16;26.79;3.27;5.44;4.03;24.39
16.12;42.91;1.63;5.44;-0.76;38.88
18.51;52.49;5.66;-5.01;3.27;40.51
16.88;78.30;-0.76;-17.10;1.63;31.69
11.22;49.33;20.15;3.05;-0.76;31.69
8.82;21.89;5.66;5.44;3.27;28.42
3.16;34.85;7.30;-0.11;-0.76;38.11
12.09;17.86;2.40;-0.11;4.03;1.09
-0.00;2.61;-1.63;-2.61;-5.66;-21.45
-11.33;-10.35;-1.63;1.42;4.90;-33.54
-12.09;-22.43;-2.40;-4.14;0.00;-40.84
-1.63;-42.58;-1.63;-7.41;-4.79;-38.44
-6.43;-46.61;-5.66;-0.98;-4.03;-32.78
-10.45;-74.81;-3.16;-2.61;-2.40;-30.38
-21.78;-54.67;-0.76;-3.38;4.03;-7.84
-15.35;-46.61;-2.40;-4.14;4.90;-22.32
-18.51;-38.55;-30.60;-0.11;4.03;-11.87
-9.69;-23.20;-5.66;-3.38;6.43;21.24
-4.03;-7.95;-2.40;9.47;3.27;34.09
3.16;13.83;-0.76;36.92;8.93;44.54
8.82;27.55;4.03;6.32;4.03;38.88
3.16;42.04;0.87;6.32;-4.79;26.79
16.88;50.97;8.93;6.32;-3.16;-11.00
14.48;46.94;3.27;-0.98;-0.76;-1.31
15.25;45.30;4.03;3.05;-7.19;0.22
16.12;44.43;3.27;2.29;-4.79;-11.00
10.45;33.21;2.40;4.68;-6.43;17.97
7.19;21.89;0.00;-0.11;-4.79;1.09
1.63;5.77;0.87;-24.28;-1.63;-2.18
-1.63;-15.14;-1.63;-36.37;-4.79;-9.37
-8.93;-20.80;-0.76;-3.38;-4.79;-22.32
-10.45;-46.61;-1.63;-2.61;3.27;-36.05
-18.51;-51.40;-3.16;-8.17;0.00;-61.75
14.48;-58.70;-1.63;-2.61;0.00;-42.47
-7.30;-54.67;-5.66;-0.11;0.00;-37.57
-8.93;-53.80;-3.16;-2.61;4.03;-27.12
-22.54;-23.20;-3.16;3.92;8.06;-11.87
-8.93;-23.20;-3.16;0.65;4.03;3.48
-7.30;-7.08;-0.76;15.14;1.63;5.12
3.16;10.67;-1.63;-3.38;6.43;22.00
17.75;20.26;3.27;5.44;4.03;22.00
0.76;39.64;4.03;2.29;6.43;45.41
20.15;20.26;2.40;10.35;-9.69;46.94
14.48;53.36;10.45;6.32;-4.79;52.60
5.66;29.19;3.27;-16.23;-0.76;43.78
12.85;46.06;6.43;3.05;-3.16;41.38
12.09;36.37;7.30;1.42;-8.06;17.21
4.03;29.95;0.87;1.42;-14.48;-7.84
0.76;10.67;-1.63;-3.38;-10.45;-41.60
-0.87;-10.35;-1.63;-2.61;-9.69;-24.72
-14.48;-20.80;-1.63;-5.01;-8.82;-36.05
-16.99;-44.98;-4.03;-5.01;4.03;-32.78
-20.15;-45.74;-5.66;-6.64;3.27;-29.51
-21.02;-50.64;-5.66;-5.01;4.90;-42.47
-18.51;-48.13;-3.16;-2.61;4.03;-37.57
-21.78;-53.80;-7.19;-4.14;4.03;-35.17
-6.43;-38.55;-1.63;-5.01;4.03;6.64
-11.33;-20.80;6.43;-2.61;4.03;1.09
-5.66;-11.98;-1.63;-1.74;4.90;13.18
8.82;9.80;0.87;-5.01;-0.76;4.25
4.79;13.83;8.06;-0.98;-0.76;16.33
15.25;40.40;7.30;7.95;0.00;46.94
17.75;48.46;3.27;8.71;22.54;38.88
23.30;52.49;3.27;0.65;-1.63;31.69
21.78;63.82;7.30;1.42;-3.16;37.35
15.25;47.70;5.66;-0.11;2.40;34.85
7.19;42.91;5.66;1.42;-9.69;12.31
4.79;26.79;-0.76;-2.61;-6.43;1.85
8.82;2.61;-0.76;-5.01;-5.66;-6.21
-0.87;-11.98;-0.76;-2.61;-7.19;-15.03
-6.43;-31.25;0.87;-9.80;-5.66;-30.38
-17.75;-46.61;-1.63;-3.38;-0.76;-48.13
-15.35;-60.22;-3.16;-4.14;1.63;-43.23
-21.02;-57.06;-1.63;-1.74;-1.63;-39.20
-10.45;-49.00;-3.16;-3.38;2.40;-44.87
-15.35;-49.00;-3.16;24.07;-10.45;-35.17
-7.30;-37.68;-2.40;1.42;12.09;-23.09
-1.63;-22.43;-0.76;-4.14;4.90;-11.00
-0.00;0.11;-4.03;3.05;4.90;3.48
-17.75;20.26;1.63;5.44;4.03;14.70
7.19;22.76;-26.57;0.65;4.03;30.06
15.25;40.40;4.03;-7.41;-0.76;42.14
26.57;46.06;23.41;3.05;-3.16;41.38
26.57;55.76;10.45;0.65;2.40;38.88
16.88;46.06;3.27;3.05;0.00;54.99
15.25;44.43;4.03;-0.11;-4.79;31.69
10.45;29.95;2.40;-28.31;-1.63;13.94
4.79;5.01;4.03;-1.74;-1.63;-2.94
-0.00;5.01;-1.63;-3.38;0.00;-32.02
-0.00;0.11;3.27;-8.17;0.00;-7.84
-12.09;-20.04;-0.76;-4.14;-8.06;-0.54
-10.45;-47.37;-1.63;-6.64;-5.66;-11.87
-21.78;-54.67;-18.51;-13.07;-1.63;-23.96
-21.02;-60.22;-7.19;-10.67;0.00;-47.26
-21.78;-54.67;-38.66;-8.17;-5.66;-63.38
-18.51;-20.80;-1.63;-2.61;-4.03;-62.62
-12.09;-44.10;-5.66;1.42;4.03;-70.68
0.76;-26.46;-6.43;-3.38;4.03;-23.09
-2.40;-12.74;-1.63;-1.74;4.90;-2.94
3.16;9.80;-0.76;-0.98;4.03;1.09
1.63;20.26;-1.63;3.05;4.03;28.42
13.72;49.33;-1.63;-23.52;-1.63;36.48
13.72;49.33;-0.76;-7.41;-14.48;42.91
19.28;62.94;5.66;6.32;-1.63;51.84
13.72;28.31;5.66;3.05;-0.76;52.60
15.25;52.49;6.43;5.44;-4.03;46.94
8.06;35.61;2.40;3.05;-7.19;35.72
5.66;45.30;-1.63;-1.74;-3.16;15.57
0.76;4.14;-1.63;27.22;-3.16;-6.21
-34.63;-21.56;0.87;24.07;-6.43;-11.00
-10.45;-22.43;-0.76;-6.64;0.00;-24.72
4.03;-44.10;-1.63;-3.38;-3.16;-42.47
-13.72;-33.65;-4.03;23.20;25.81;-34.41
-18.51;-56.19;-4.03;-1.74;1.63;-50.53
-9.69;-52.16;-3.16;-3.38;1.63;-55.32
-10.45;-49.00;-2.40;-5.01;0.00;-34.41
-8.06;-32.02;-2.40;3.05;1.63;-37.57
-8.93;-23.20;-4.03;4.68;4.03;0.22
2.40;-3.92;-1.63;40.95;7.30;13.94
1.63;10.67;0.00;0.65;3.27;5.12
-0.87;25.16;-0.76;-0.11;4.03;16.33
11.22;38.01;3.27;3.05;0.87;29.29
16.12;56.52;2.40;6.32;0.00;26.79
17.75;52.49;3.27;8.71;4.03;34.85
17.75;51.73;16.12;4.68;-6.43;50.20
18.51;51.73;7.30;-0.11;-7.19;34.85
11.22;35.61;3.27;7.95;-4.79;35.72
6.43;21.13;0.00;0.65;-4.79;16.33
0.76;0.98;3.27;-4.14;-8.82;-14.27
-6.43;-15.14;0.87;-5.01;-4.79;-22.32
-4.03;-20.80;-6.43;-4.14;-4.03;-25.48
-17.75;-40.95;-6.43;-5.01;2.40;-48.13
-21.02;-53.80;-1.63;-3.38;0.00;-40.08
-14.48;-48.13;-1.63;-13.83;2.40;-29.51
-13.72;-47.37;11.33;0.65;-0.76;-39.20
-16.99;-55.43;-3.16;1.42;17.75;-33.54
-8.06;-45.74;0.00;-0.98;1.63;-20.69
-5.66;-28.10;-4.03;-5.01;4.90;-23.96
-2.40;-11.11;-17.75;0.65;-3.16;-0.54
4.79;-2.29;-1.63;5.44;4.03;26.79
5.66;6.64;2.40;7.08;0.00;26.79
53.14;39.64;-0.76;1.42;0.00;64.69
20.91;55.76;1.63;7.95;-5.66;30.06
23.30;57.39;6.43;8.71;-3.16;17.97
16.12;29.19;0.87;4.68;-10.45;32.45
47.48;53.36;0.87;-2.61;-11.22;28.42
12.09;34.85;0.87;-0.98;-3.16;22.76
5.66;25.16;2.40;1.42;-1.63;9.91
3.16;5.01;2.40;2.29;-0.76;-6.21
-7.30;-13.50;-0.76;-13.07;-3.16;-11.00
-7.30;-22.43;-1.63;-2.61;-3.16;-33.54
-16.99;-45.74;-5.66;-5.77;-0.76;-62.62
-16.99;-54.67;-1.63;-5.01;-0.76;-52.16
-48.35;-55.43;-2.40;-3.38;4.03;-42.47
-12.09;-49.00;-2.40;0.65;4.03;-41.60
-17.75;-48.13;-5.66;-0.98;3.27;-28.75
-11.33;-36.05;-2.40;-26.79;4.90;-16.66
-5.66;-28.10;-6.43;-2.61;6.43;-27.99
-4.90;21.89;-1.63;7.95;3.27;10.67
1.63;13.83;-0.76;1.42;1.63;27.66
4.03;17.10;-2.40;3.92;3.27;26.79
16.88;41.27;0.00;7.95;-1.63;35.72
26.57;56.52;6.43;-3.38;0.00;38.88
23.30;92.78;7.30;10.35;11.33;41.38
16.88;48.46;3.27;-0.98;-4.79;48.57
18.51;52.49;5.66;-2.61;-4.03;41.38
8.06;39.64;2.40;5.44;-3.16;31.69
5.66;28.31;0.87;2.29;0.87;21.24
-0.87;-3.92;-14.48;1.42;3.27;-11.00
-9.69;-8.71;8.93;-0.98;4.03;-1.31
-16.99;-25.59;-2.40;-3.38;-1.63;-33.54
-12.96;-46.61;-1.63;-7.41;-8.82;-76.34
3.16;-51.40;-1.63;-4.14;-6.43;-81.13
-15.35;-52.16;-1.63;-7.41;-1.63;-76.34
-8.93;-50.64;-5.66;-22.76;3.27;-48.90
-9.69;-49.00;-1.63;-1.74;21.02;-38.44
-14.48;-38.55;-4.03;-30.82;-11.22;-11.87
-12.96;-20.80;-1.63;0.65;-3.16;0.22
-36.26;-16.77;-1.63;6.32;0.00;13.94
-20.15;5.01;-1.63;3.05;0.00;16.33
-24.18;-5.44;-1.63;5.44;0.00;32.45
12.09;42.04;0.87;7.95;4.03;51.84
16.12;48.46;4.03;5.44;0.00;38.88
22.54;53.36;3.27;3.05;-1.63;36.48
15.25;48.46;0.87;-0.11;2.40;34.09
11.22;46.06;7.30;4.68;-3.16;30.06
15.25;36.37;2.40;1.42;-3.16;57.50
17.75;20.26;0.87;-0.98;-1.63;4.25
4.03;5.01;-0.76;-3.38;0.00;0.22
-5.66;-15.14;-0.76;-3.38;0.00;9.15
-7.30;-25.59;0.87;1.42;-0.76;-23.96
-13.72;-41.71;-1.63;-13.83;-21.67;-35.17
-17.75;-54.67;-1.63;7.95;4.03;-37.57
-21.02;-70.78;-1.63;-2.61;8.93;-27.12
-21.78;-57.06;-4.03;-3.38;4.90;-24.72
-21.78;-55.43;-9.69;-3.38;4.03;-24.72
-17.75;-38.55;-3.16;-0.98;8.06;-11.87
-4.90;-23.20;-1.63;-2.61;1.63;-6.21
3.16;-11.11;-1.63;-0.11;4.03;9.91
8.06;49.33;0.87;8.71;4.03;15.57
5.66;25.16;-0.76;-6.64;-1.63;27.66
12.09;51.73;-0.76;3.05;-0.76;41.38
25.81;55.76;1.63;10.35;-0.76;43.78
16.88;33.98;5.66;5.44;0.00;36.48
14.48;48.46;6.43;-3.38;-6.43;39.75
16.12;51.73;6.43;-1.74;-6.43;31.69
5.66;55.76;0.87;-1.74;-6.43;17.97
2.40;25.92;2.40;-1.74;-6.43;1.09
-5.66;5.01;-0.76;-2.61;-0.76;-14.27
-4.03;-5.44;-1.63;-5.77;-11.22;-15.90
-6.43;-22.43;-26.57;-4.14;1.63;-28.75
-11.33;-38.55;-1.63;-4.14;-1.63;-36.05
-18.51;-42.58;-1.63;-3.38;-4.03;-48.90
-37.90;-51.40;-2.40;-5.01;-7.19;-49.66
-13.72;-74.81;-1.63;-1.74;-4.79;-35.17
-22.54;-50.64;-2.40;-3.38;-0.76;-26.35
-21.78;-41.71;-1.63;-0.11;4.03;-20.69
3.16;-21.56;-1.63;-0.11;-11.22;-19.93
0.76;-10.35;-1.63;8.71;2.40;-12.63
3.16;10.67;-2.40;6.32;2.40;5.12
-5.66;-8.71;2.40;10.35;4.90;21.24
4.03;39.64;12.96;6.32;4.03;38.88
16.12;31.58;0.00;1.42;-21.67;50.97
16.12;51.73;0.87;8.71;0.00;39.75
12.09;48.46;-0.76;3.05;0.00;55.87
-8.93;42.91;4.03;-0.11;-7.19;63.92
24.94;34.85;2.40;25.59;-1.63;57.50
8.06;26.79;0.87;1.42;0.00;16.33
4.03;3.38;-0.76;-1.74;-1.63;-12.63
-4.03;-16.77;-12.85;-0.98;-4.79;-33.54
24.18;-22.43;-2.40;-3.38;0.00;-50.53
-14.48;-46.61;-6.43;-7.41;-8.82;-76.34
-19.38;-49.77;-1.63;-7.41;-6.43;-107.70
-13.72;-58.70;-4.03;-3.38;-6.43;-61.75
-15.35;-51.40;10.45;-3.38;-3.16;-40.08
-17.75;-46.61;-3.16;-0.98;-9.69;-13.39
-13.72;-32.89;-1.63;-1.74;2.40;-11.00
-1.63;-20.80;-1.63;17.53;4.03;-2.18
3.16;-11.98;10.45;2.29;4.03;14.70
5.66;12.20;0.00;1.42;4.03;26.79
11.22;25.92;-1.63;-4.14;4.03;34.09
12.09;28.31;0.87;5.44;4.90;27.66
16.12;54.99;4.03;10.35;1.63;25.26
17.75;52.49;-0.76;-16.23;4.90;24.39
10.45;49.33;7.30;4.68;-1.63;31.69
4.03;20.26;6.43;1.42;8.06;29.29
4.79;56.52;3.27;-27.55;-12.85;22.00
3.16;25.16;-1.63;6.32;-8.06;-2.18
24.94;5.01;-1.63;-1.74;-8.82;-14.27
-19.38;-38.55;0.87;20.04;-3.16;-12.63
8.06;-3.92;-1.63;-1.74;0.87;-19.93
-13.72;-36.92;12.96;-5.01;2.40;-36.05
-14.48;-56.19;-1.63;-6.64;0.87;-37.57
-17.75;-55.43;-1.63;-1.74;1.63;-45.63
-12.96;-50.64;-4.79;-0.98;2.40;-33.54
-21.02;-48.13;-2.40;-0.98;28.21;-22.32
-10.45;-36.92;-4.03;-0.98;-17.64;-23.09
-0.87;-23.20;-5.66;1.42;4.90;-15.03
-4.03;-15.14;-1.63;2.29;5.66;-6.97
2.40;13.83;-1.63;1.42;3.27;8.28
5.66;15.46;0.00;-0.11;1.63;12.31
3.16;34.85;-5.66;-1.74;3.27;38.88
3.16;49.33;6.43;6.32;1.63;41.38
18.51;31.58;4.03;3.92;-0.76;47.81
24.18;54.12;6.43;6.32;-1.63;43.78
18.51;51.73;4.03;-0.11;-9.69;38.11
20.15;58.15;4.03;7.08;-8.06;35.72
19.28;26.79;0.00;3.05;-6.43;15.57
4.03;0.98;4.03;-0.11;-7.19;-2.18
-11.33;-13.50;-1.63;-5.01;-1.63;-12.63
-29.08;-23.20;-1.63;-0.98;-3.16;-10.24
-17.75;-45.74;-0.76;-2.61;-4.03;-43.23
-15.35;-51.40;-3.16;10.35;27.44;-40.08
-21.02;-47.37;-1.63;-2.61;1.63;-42.47
-13.72;-49.00;-6.43;-6.64;0.00;-42.47
-21.02;-48.13;-4.03;-2.61;1.63;-32.02
-15.35;-37.68;-1.63;-1.74;4.03;6.64
-13.72;-24.83;-2.40;-1.74;4.03;-7.84
-11.33;-6.32;-1.63;31.25;2.40;13.94
8.82;9.04;-1.63;5.44;2.40;19.60
13.72;18.73;-1.63;4.68;4.90;22.76
17.75;38.88;-0.76;7.95;4.03;31.69
17.75;56.52;0.87;5.44;4.03;37.35
16.88;76.67;2.40;2.29;16.99;29.29
12.85;22.76;2.40;-0.98;2.40;26.79
5.66;50.97;4.03;3.05;-1.63;31.69
3.16;28.31;0.87;-1.74;-1.63;29.29
2.40;30.82;2.40;4.68;-21.67;8.28
3.16;6.64;3.27;1.42;-1.63;-8.60
1.63;-11.98;0.87;21.56;-9.69;-11.00
3.16;3.38;-1.63;-4.14;-9.69;-27.12
-9.69;-40.95;-2.40;10.35;-5.66;-44.87
-20.15;-46.61;-1.63;-0.98;0.87;-40.08
-16.99;-56.19;-3.16;-4.14;3.27;-29.51
-29.84;-53.03;-4.03;-0.11;4.03;-23.96
-8.06;-37.68;-4.79;17.53;14.48;-23.96
-8.93;-45.74;-8.82;-2.61;-0.76;-20.69
-8.93;-25.59;-2.40;2.29;-23.30;-24.72
-3.27;-7.95;-3.16;0.65;-19.28;-14.27
4.79;-16.77;0.00;4.68;-1.63;-11.87
6.43;25.16;-0.76;3.05;1.63;12.31
-7.30;56.52;0.00;-13.07;1.63;43.78
-8.93;73.51;1.63;5.44;2.40;52.60
11.22;55.76;3.27;0.65;-21.67;43.78
12.09;46.06;3.27;2.29;0.00;40.51
19.28;48.46;1.63;4.68;0.00;38.11
14.48;35.61;-0.76;-1.74;1.63;17.21
8.82;29.95;4.03;-4.14;-0.76;-8.60
-4.03;5.01;7.30;-5.77;-0.76;-11.87
-9.69;-11.11;-3.16;-5.77;-4.03;-42.47
-7.30;-20.80;-3.16;-5.01;-7.19;-50.53
-13.72;-37.68;-1.63;-5.01;-2.40;-40.84
-20.15;-55.43;-7.19;-0.98;-5.66;-26.35
-39.53;-68.28;-8.82;-5.01;-5.66;-30.38
-8.06;-40.95;-5.66;-21.13;-3.16;-36.81
-10.45;-45.74;-8.82;-3.38;1.63;-32.02
-4.90;-34.52;-1.63;-0.98;4.03;-23.96
-7.30;-25.59;-1.63;-6.64;0.87;-11.00
4.03;-2.29;-1.63;6.32;-1.63;5.12
3.16;6.64;-0.76;-1.74;4.03;31.69
8.82;-3.92;0.87;9.47;4.03;35.72
8.82;38.88;3.27;0.65;-20.15;51.84
16.88;54.99;0.87;4.68;1.63;51.84
23.30;54.12;2.40;2.29;1.63;38.11
16.88;49.33;6.43;-23.52;-4.03;35.72
16.12;33.21;4.03;7.08;-16.12;29.29
8.06;30.82;10.45;2.29;-8.82;30.82
3.16;20.26;4.03;-0.11;-4.03;1.09
4.79;3.38;2.40;-2.61;-4.03;-7.84
4.03;-15.14;-1.63;-2.61;-6.43;-7.84
-4.03;-23.20;-0.76;-2.61;0.00;-26.35
-11.33;-44.10;-1.63;14.37;-1.63;-44.87
-21.02;-47.37;-1.63;-13.83;4.03;-42.47
-17.75;-21.56;-3.16;-5.77;4.03;-36.81
-14.48;-46.61;-2.40;-5.01;4.03;-40.84
-12.09;-52.16;-3.16;-6.64;3.27;-36.05
-9.69;-36.92;-15.25;1.42;4.03;-19.06
-10.45;-20.80;-5.66;3.05;4.90;-23.09
0.76;-4.68;-0.76;-2.61;-21.67;13.18
3.16;41.27;-1.63;8.71;-1.63;13.94
8.82;21.89;2.40;-0.11;-3.16;26.03
10.45;38.01;-1.63;3.05;-0.76;29.29
-12.09;46.06;3.27;6.32;0.00;29.29
7.19;49.33;6.43;7.08;-6.43;36.48
33.87;46.94;-0.76;5.44;-7.19;34.85
20.91;56.52;9.69;2.29;-30.60;26.79
-5.66;42.04;0.87;10.35;-10.45;9.91
4.79;26.79;0.00;-1.74;-6.43;1.85
2.40;2.61;0.00;-4.14;-4.79;-17.42
-0.87;-3.05;-2.40;2.29;0.87;-21.45
-5.66;-24.83;-0.76;-1.74;2.40;-17.42
-18.51;-43.34;-7.19;-5.01;1.63;-42.47
-21.78;-57.83;-3.16;-1.74;4.03;-30.38
-17.75;-57.06;-3.16;-6.64;4.03;-37.57
-15.35;-53.80;-3.16;-3.38;4.03;-45.63
-10.45;-57.06;-5.66;1.42;4.03;-32.02
-10.45;-66.76;-2.40;0.65;6.43;-19.93
-8.06;-28.86;-2.40;0.65;0.00;-6.21
-3.27;-10.35;-2.40;-2.61;3.27;17.21
1.63;3.38;-1.63;2.29;1.63;9.91
2.40;10.67;0.87;2.29;0.00;23.63
8.82;34.85;0.00;6.32;0.00;38.88
19.28;54.12;4.03;7.08;-1.63;28.42
24.18;54.12;7.30;5.44;-0.76;39.75
16.88;47.70;2.40;6.32;-8.82;54.23
19.28;49.33;0.87;1.42;-9.69;34.85
50.75;35.61;13.72;0.65;-8.82;16.33
10.45;23.52;0.00;-0.11;-9.69;8.28
4.03;2.61;2.40;-0.98;-3.16;2.72
-1.63;-20.04;0.87;10.35;-3.16;-1.31
-2.40;-24.07;-0.76;-5.77;-1.63;1.09
-8.93;-45.74;-3.16;-2.61;-1.63;-23.09
-14.48;-57.06;-4.03;-2.61;2.40;-39.20
-17.75;-60.22;-31.36;-3.38;4.03;-40.84
-17.75;-54.67;-8.82;-3.38;-21.67;-55.32
-17.75;-46.61;-16.12;-0.98;-1.63;-48.90
11.22;-39.31;-9.69;-2.61;3.27;-40.84
-5.66;-29.62;-1.63;-0.11;-5.66;-32.02
-4.03;-7.95;-0.76;4.68;-3.16;-2.94
4.79;6.64;-1.63;3.05;-0.76;3.48
8.06;30.82;0.87;7.95;3.27;24.39
38.66;41.27;1.63;6.32;4.03;52.60
16.88;54.99;2.40;4.68;3.27;52.60
20.15;56.52;7.30;-0.11;12.96;53.47
22.54;55.76;3.27;5.44;-1.63;39.75
15.25;67.84;4.03;12.74;-0.76;37.35
11.22;23.52;3.27;-0.98;-6.43;25.26
3.16;15.46;-1.63;-3.38;-2.40;5.12
-4.90;5.01;0.00;-5.01;-0.76;-6.97
-6.43;-6.32;-0.76;-2.61;0.00;-8.60
0.76;-20.80;0.00;2.29;-4.79;-23.96
-12.96;-38.55;-2.40;12.74;-4.79;-32.78
-17.75;-63.49;-6.43;-6.64;-5.66;-42.47
-21.78;-53.80;-4.79;-1.74;-1.63;-30.38
-25.05;-53.80;-6.43;-7.41;5.66;-56.19
-16.99;-48.13;-8.82;-8.17;-3.16;-33.54
-16.99;-40.95;-2.40;-5.77;4.03;-25.48
-5.66;-26.46;-3.16;6.32;4.03;-22.32
-1.63;-2.29;-1.63;2.29;-1.63;-24.72
-20.15;6.64;-1.63;4.68;4.03;-6.21
12.85;25.16;-0.76;-0.11;4.03;17.21
11.22;38.88;0.87;3.05;1.63;36.48
16.88;54.12;4.90;5.44;-8.06;41.38
15.25;47.70;3.27;6.32;3.27;41.38
12.09;48.46;2.40;1.42;-3.16;14.70
27.33;52.49;5.66;6.32;-4.03;30.82
-18.51;40.40;0.00;3.05;-4.03;16.33
11.22;29.19;4.03;-2.61;5.66;1.09
1.63;6.64;8.06;-4.14;-4.03;-6.21
-2.40;-17.53;-1.63;2.29;-33.00;-16.66
-12.09;-20.04;-13.72;-3.38;-7.19;-41.60
-16.99;-44.10;-2.40;-3.38;5.66;-11.87
-8.06;-57.06;-2.40;-2.61;0.00;-37.57
-18.51;-53.80;-2.40;-6.64;1.63;-24.72
-20.15;-57.06;-1.63;-0.11;-1.63;-35.17
-44.32;-47.37;-4.03;-0.11;2.40;-24.72
-22.54;-38.55;-1.63;-0.98;1.63;-17.42
-8.93;-20.80;-21.78;-2.61;6.43;1.09
-27.44;-7.95;-1.63;3.05;4.03;1.09
9.69;9.04;24.18;5.44;-1.63;9.15
12.09;4.14;2.40;-2.61;0.00;26.03
11.22;36.37;2.40;-2.61;4.90;50.20
15.25;55.76;1.63;-3.38;-0.76;46.94
16.12;56.52;0.00;-0.11;-3.16;37.35
17.75;52.49;2.40;-2.61;0.87;30.82
10.45;50.97;3.27;3.05;-4.03;32.45
15.25;42.04;4.03;-0.11;-3.16;14.70
3.16;29.19;-1.63;-1.74;-3.16;-1.31
0.76;9.04;3.27;-3.38;-4.03;-13.39
-2.40;-14.37;-0.76;-1.74;-4.79;-24.72
-9.69;-20.80;-0.76;-0.11;-6.43;-54.56
-12.09;-44.98;10.45;-1.74;-0.76;-45.63
-12.96;-49.00;-2.40;-1.74;1.63;-46.50
-14.48;-57.83;-4.79;-1.74;12.09;-36.81
-13.72;-52.16;-4.79;-4.14;0.00;-30.38
-18.51;-47.37;-3.16;2.29;4.03;-23.09
-12.96;-38.55;-5.66;-0.98;7.30;-12.63
-7.30;-27.22;-0.76;1.42;4.03;0.22
-8.93;-7.95;-1.63;4.68;7.30;22.76
-4.90;5.77;-1.63;6.32;7.30;18.73
11.22;22.76;0.00;2.29;3.27;30.06
10.45;42.91;-0.76;3.05;-11.22;37.35
24.94;48.46;28.21;6.32;-6.43;38.11
16.12;54.99;-1.63;4.68;-0.76;41.38
24.18;56.52;6.43;-24.28;-4.79;40.51
-4.03;23.52;2.40;7.08;0.00;32.45
10.45;43.67;0.00;-1.74;-7.19;13.18
0.76;28.31;0.87;-0.11;4.03;1.09
-0.87;0.98;-1.63;-2.61;-6.43;-24.72
-4.03;-16.77;-1.63;-1.74;-1.63;-4.57
-8.06;-26.46;-25.81;-2.61;3.27;-23.96
-12.96;-46.61;-1.63;-2.61;4.03;-33.54
-40.29;-49.00;-2.40;1.42;0.87;-28.75
-20.15;-62.73;-2.40;-7.41;4.03;-35.17
-19.38;-55.43;-4.03;-7.41;4.03;-23.96
-11.33;-52.16;-2.40;-1.74;5.66;-24.72
-7.30;-45.74;-4.79;-31.58;18.51;-17.42
-5.66;-24.83;-3.16;-2.61;3.27;-22.32
-5.66;-5.44;-1.63;11.98;4.03;-6.97
14.48;13.83;2.40;5.44;4.90;1.09
4.03;29.95;-1.63;7.08;-3.16;14.70
12.85;40.40;3.27;7.95;-3.16;30.82
15.25;74.27;0.87;-26.79;-8.06;40.51
18.51;56.52;7.30;2.29;-4.03;42.91
11.22;54.12;25.05;6.32;-8.06;28.42
20.91;45.30;7.30;24.07;6.43;29.29
17.75;45.30;4.90;1.42;2.40;25.26
11.22;21.89;-1.63;-0.98;-0.76;5.88
3.16;3.38;13.72;0.65;-1.63;-7.84
1.63;-7.95;0.00;-0.98;-0.76;-28.75
-5.66;-21.56;-1.63;-1.74;-1.63;-19.93
-14.48;-46.61;-9.69;1.42;4.03;-43.23
-15.35;-54.67;11.33;-1.74;1.63;-44.87
-8.93;-57.06;-1.63;-2.61;29.84;-52.16
-8.93;-53.03;-2.40;-4.14;0.00;-56.19
-16.99;-54.67;-5.66;-4.14;4.03;-37.57
-10.45;-42.58;-9.69;3.05;4.03;-16.66
-10.45;-24.83;-29.84;-3.38;1.63;-14.27
0.76;-10.35;-1.63;-0.98;-3.16;9.91
7.19;12.20;16.12;-0.98;1.63;19.60
3.16;21.13;4.03;2.29;4.03;26.79
5.66;38.88;7.30;5.44;4.03;52.60
16.88;46.94;0.00;6.32;0.00;54.23
16.12;54.99;0.87;-0.98;0.00;30.82
14.48;46.94;2.40;9.47;5.66;22.76
14.48;54.99;-0.76;-0.98;-7.19;17.97
15.25;30.82;2.40;2.29;-4.79;5.88
5.66;25.16;-0.76;-2.61;-6.43;-9.37
1.63;5.01;-2.40;2.29;-3.16;-8.60
-3.27;-7.08;-1.63;15.14;4.03;-6.21
-8.06;-23.20;-4.03;0.65;-1.63;-0.54
-7.30;-45.74;-5.66;-2.61;3.27;-23.96
-13.72;-46.61;-3.16;-2.61;1.63;-0.54
-16.12;-54.67;-4.03;-3.38;4.03;-14.27
-12.09;-55.43;-5.66;-25.92;1.63;-46.50
-21.78;-46.61;-8.82;0.65;1.63;-60.98
-16.99;-37.68;-4.03;-5.01;4.03;-33.54
-37.90;-7.95;-3.16;3.05;4.03;-7.84
-9.69;0.11;-1.63;-0.11;1.63;6.64
2.40;7.41;-1.63;3.05;3.27;1.09
12.09;42.91;-0.76;2.29;3.27;6.64
21.78;41.27;-0.76;2.29;-5.66;23.63
44.32;50.97;-1.63;0.65;-4.03;28.42
13.72;55.76;0.00;1.42;0.87;34.85
13.72;50.97;3.27;6.32;4.03;44.54
17.75;56.52;3.27;7.95;-7.19;28.42
8.82;56.52;-1.63;15.14;-7.19;12.31
6.43;21.89;0.87;3.05;-1.63;12.31
3.16;4.14;3.27;-1.74;-10.45;-12.63
0.76;5.01;0.87;-0.11;-6.43;-21.45
-2.40;-20.04;0.00;-1.74;-4.03;-34.41
-10.45;-40.95;-1.63;-2.61;0.00;-48.90
-19.38;-54.67;-2.40;-2.61;-10.45;-46.50
-20.15;-57.83;-1.63;-3.38;1.63;-34.41
-8.06;-50.64;-8.82;-4.14;3.27;-37.57
-16.99;-46.61;-6.43;-10.67;4.03;-23.09
-8.06;-37.68;-9.69;-1.74;4.03;-7.84
-10.45;-28.10;-3.16;0.65;9.69;0.22
-0.87;-11.11;-2.40;-0.98;-19.28;2.72
4.03;9.80;0.87;7.08;-4.79;19.60
7.19;21.89;-1.63;6.32;0.00;34.85
14.48;38.88;-9.69;5.44;-0.76;43.78
18.51;49.33;0.87;5.44;2.40;47.81
16.88;52.49;-1.63;1.42;-4.03;45.41
16.12;49.33;0.00;5.44;-3.16;39.75
16.12;51.73;7.30;3.05;-1.63;38.88
6.43;39.64;0.87;1.42;-4.03;26.79
3.16;28.31;0.00;-25.92;-0.76;24.39
0.76;1.74;-0.76;-1.74;2.40;1.09
-8.93;-11.98;-1.63;-4.14;-3.16;-14.27
-12.09;-25.59;-2.40;-0.98;-1.63;-25.48
-11.33;-46.61;-0.76;-4.14;0.87;-51.29
-17.75;-59.46;-7.19;1.42;-4.03;-67.41
8.82;-59.46;-1.63;-3.38;-1.63;-65.01
-13.72;-51.40;-4.03;11.98;-3.16;-50.53
-17.75;-46.61;-1.63;-3.38;-4.03;-24.72
-4.03;-31.25;-4.79;-1.74;1.63;-10.24
-5.66;-20.04;-2.40;17.53;27.44;-6.97
-41.06;-7.08;-4.79;-2.61;-1.63;-0.54
2.40;7.41;-1.63;3.05;0.87;21.24
-8.06;-2.29;0.00;0.65;4.03;26.79
12.09;57.39;0.87;18.40;7.30;45.41
26.57;25.16;8.93;-0.98;-8.06;30.06
17.75;57.39;4.03;1.42;-10.45;21.24
13.72;52.49;2.40;1.42;-3.16;35.72
16.88;46.06;0.87;-0.11;4.03;45.41
12.09;35.61;2.40;-0.11;2.40;22.76
14.48;21.89;2.40;-0.11;4.03;11.54
6.43;22.76;-3.16;-2.61;-3.16;0.22
-4.03;-10.35;-1.63;-0.11;-6.43;-20.69
0.76;-20.04;3.27;-5.01;-6.43;-51.29
-16.99;-46.61;-1.63;-8.17;-4.03;-38.44
-21.78;-54.67;-4.03;-1.74;8.06;-48.90
12.09;-57.06;-3.16;-6.64;0.87;-50.53
-14.48;-52.16;-4.03;-10.67;6.43;-38.44
-16.12;-46.61;-4.03;-4.14;5.66;-44.87
-7.30;-39.31;-1.63;-3.38;4.03;-22.32
-8.93;-28.10;-1.63;18.40;6.43;-23.09
-4.90;-11.98;-1.63;-2.61;4.03;1.09
3.16;5.01;-1.63;0.65;4.03;26.03
4.79;25.92;0.00;-0.11;3.27;54.23
4.03;39.64;0.87;1.42;2.40;76.01
16.12;51.73;7.30;6.32;-0.76;63.92
13.72;56.52;3.27;-17.86;-4.03;38.88
20.15;52.49;5.66;6.32;-6.43;23.63
24.18;55.76;7.30;5.44;-1.63;16.33
8.82;43.67;1.63;2.29;-10.45;-20.69
8.06;21.89;-25.81;1.42;-16.12;-35.17
2.40;5.01;-0.76;-16.23;-6.43;-43.23
-1.63;-8.71;-4.03;-5.01;-5.66;-59.35
-4.03;-53.80;-4.03;7.95;-3.16;-23.96
-16.99;-40.95;-6.43;-7.41;-1.63;-49.66
-10.45;-51.40;-1.63;-2.61;4.03;-35.17
-18.51;-57.83;-1.63;-15.46;9.69;-24.72
-21.78;-54.67;-2.40;0.65;3.27;-22.32
-14.48;-54.67;-7.19;-5.77;3.27;-24.72
-4.03;-34.52;-4.03;-0.11;-0.76;2.72
2.40;-18.40;-1.63;-2.61;1.63;9.15
3.16;4.14;-1.63;-0.11;4.03;9.15
3.16;34.85;-1.63;20.04;4.03;15.57
3.16;16.23;1.63;6.32;4.03;22.76
24.94;34.85;-1.63;5.44;-0.76;38.88
17.75;50.97;3.27;3.05;3.27;43.78
26.57;56.52;11.33;-0.11;2.40;40.51
24.94;38.01;4.03;-0.98;-5.66;38.11
16.12;50.97;2.40;3.05;-3.16;34.09
15.25;36.37;5.66;3.05;-0.76;22.76
4.03;20.26;0.87;8.71;-4.03;9.91
-0.87;7.41;0.87;-0.98;4.03;0.22
-7.30;-18.40;0.87;-3.38;-12.85;-14.27
-7.30;-20.80;-1.63;-1.74;-4.03;-30.38
-9.69;-47.37;0.87;-3.38;3.27;-48.13
-14.48;-49.77;-3.16;-5.01;4.03;-50.53
-22.54;-35.28;-3.16;-3.38;6.43;-34.41
-16.99;-44.98;-6.43;-33.98;4.90;-27.12
3.16;-49.00;-3.16;-3.38;7.30;-25.48
-5.66;-36.92;-3.16;-1.74;5.66;-2.94
-0.87;-22.43;-0.76;-0.11;1.63;1.85
5.66;-8.71;-28.21;0.65;-6.43;9.91
3.16;13.07;-1.63;-0.98;-8.06;9.91
8.06;18.73;0.00;-0.11;-11.22;5.88
11.22;34.85;-12.09;3.05;-0.76;28.42
13.72;46.06;0.87;-0.98;-4.79;38.11
16.12;56.52;0.00;6.32;-1.63;42.91
20.15;52.49;0.87;5.44;1.63;34.85
20.91;46.94;4.03;-15.46;-1.63;36.48
16.88;33.21;7.30;-2.61;-0.76;26.03
3.16;21.89;-1.63;-5.01;0.00;-3.81
-6.43;-1.42;0.87;-2.61;4.03;-11.87
-12.09;-11.98;-1.63;-1.74;-0.76;-29.51
-9.69;-22.43;-1.63;-9.80;-21.67;-40.08
-18.51;-68.28;-2.40;-0.11;-0.76;-50.53
-21.02;-54.67;-3.16;-4.14;-6.43;-45.63
-22.54;-52.16;-2.40;-2.61;-5.66;-46.50
-15.35;-49.77;21.78;-1.74;4.03;-37.57
-46.72;-60.22;-5.66;-7.41;2.40;-19.93
-11.33;-33.65;-2.40;0.65;4.03;-11.87
-8.93;-24.83;-1.63;-3.38;2.40;1.09
1.63;-10.35;-0.76;3.05;4.03;23.63
3.16;17.10;9.69;4.68;1.63;22.76
2.40;22.76;0.87;-0.11;0.00;26.03
3.16;62.18;0.00;8.71;-21.67;42.14
-8.06;74.27;5.66;5.44;0.00;45.41
21.78;61.42;9.69;2.29;-4.79;30.82
24.94;54.12;0.87;-0.11;-4.79;34.09
3.16;52.49;-12.85;-3.38;-3.16;30.06
11.22;36.37;6.43;6.32;0.87;26.03
3.16;28.31;-3.16;-0.11;-7.19;1.09
2.40;5.77;0.00;-3.38;-3.16;-12.63
-3.27;1.74;-1.63;-15.46;-4.03;-15.90
-4.90;-20.80;-0.76;-2.61;-0.76;-12.63
-20.15;-48.13;-6.43;-4.14;2.40;-52.16
-17.75;-51.40;-5.66;-3.38;-3.16;-51.29
-16.99;-51.40;-4.03;-5.01;-4.03;-43.23
-11.33;-46.61;-8.82;-5.01;3.27;-32.78
-16.99;-52.16;-4.79;-3.38;1.63;-38.44
-9.69;-29.62;-5.66;-0.11;4.03;-23.96
-4.03;-24.83;13.72;1.42;4.03;-47.26
-1.63;-5.44;2.40;6.32;4.03;5.12
3.16;16.23;-1.63;1.42;3.27;12.31
5.66;33.21;0.87;-0.11;-3.16;41.38
15.25;62.18;0.00;-2.61;3.27;64.69
24.18;52.49;0.87;5.44;-4.03;61.53
12.85;56.52;0.87;-0.98;-7.19;42.14
13.72;49.33;0.00;4.68;-4.03;25.26
14.48;52.49;2.40;6.32;-3.16;8.28
8.82;35.61;8.93;-0.98;0.00;17.97
3.16;7.41;5.66;-2.61;4.03;1.09
-4.03;-2.29;-4.03;-5.01;-6.43;1.85
-22.54;-10.35;-2.40;-1.74;-7.19;1.09
4.03;-16.77;-1.63;-3.38;-4.03;-12.63
-4.03;-39.31;0.87;5.44;5.66;-12.63
-8.93;-49.00;-1.63;-1.74;0.00;-42.47
-11.33;-58.70;-3.16;-5.01;-1.63;-44.87
-18.51;-53.80;-6.43;-5.01;0.00;-50.53
-18.51;-50.64;-3.16;-3.38;-3.16;-50.53
-12.96;-35.28;-20.15;1.42;0.00;-30.38
-7.30;-20.80;-4.79;2.29;4.90;-44.87
-1.63;-8.71;-1.63;-0.11;8.93;2.72
14.48;5.01;-6.43;1.42;4.03;26.79
4.03;16.23;-1.63;2.29;5.66;29.29
6.43;39.64;-5.66;8.71;4.03;74.38
14.48;44.43;2.40;5.44;-20.15;51.84
16.88;49.33;-0.76;9.47;3.27;42.14
12.09;52.49;8.06;7.08;-4.03;37.35
12.09;44.43;4.03;41.71;-7.19;8.28
6.43;41.27;-2.40;-1.74;-7.19;1.09
2.40;23.52;3.27;-0.11;-10.45;-7.84
-4.03;5.01;2.40;-0.98;-11.22;4.25
-4.03;-9.47;-24.94;-3.38;-7.19;-4.57
-8.93;-20.80;-5.66;1.42;-3.16;-12.63
-14.48;-41.71;-8.82;-0.11;-8.06;-29.51
-7.30;-49.00;-4.79;-2.61;-4.03;-35.17
-2.40;-53.80;-6.43;-2.61;0.00;-40.08
-8.06;-54.67;-5.66;-2.61;3.27;-40.08
-10.45;-49.77;0.87;-3.38;0.00;-19.93
-11.33;-35.28;-4.79;-3.38;4.03;-15.03
-5.66;-24.83;-4.79;-4.14;4.03;1.85
-0.87;-2.29;-1.63;-1.74;-11.22;13.94
28.97;21.13;-1.63;3.05;4.03;15.57
2.40;21.89;-1.63;3.05;3.27;30.06
3.16;33.21;2.40;4.68;0.87;48.57
28.97;56.52;4.03;3.92;1.63;52.60
28.21;63.82;7.30;6.32;0.00;43.78
20.15;54.12;7.30;7.95;-0.76;26.03
20.91;54.99;6.43;2.29;-4.79;51.84
8.82;36.37;0.87;2.29;-0.76;16.33
3.16;0.98;4.03;2.29;0.00;12.31
3.16;5.01;0.00;-2.61;-5.66;-19.93
-8.93;-8.71;-1.63;-0.11;-4.79;-24.72
-7.30;-11.98;-1.63;-3.38;-8.06;-40.08
-13.72;-34.52;-1.63;4.68;4.03;-50.53
-21.78;-57.06;-1.63;10.35;-0.76;-50.53
-18.51;-59.46;-2.40;-4.14;-1.63;-36.81
-8.93;-46.61;-5.66;-3.38;4.90;-38.44
-8.93;-86.03;-5.66;-1.74;2.40;-28.75
-12.09;-22.43;-5.66;-2.61;-0.76;-13.39
-7.30;-12.74;-1.63;38.55;29.08;-9.37
-4.03;-11.98;-3.16;6.32;4.03;14.70
-2.40;5.01;-0.76;3.05;3.27;27.66
3.16;28.31;0.87;-0.11;3.27;37.35
8.82;38.88;-0.76;-0.98;0.00;50.97
20.91;54.99;0.00;-2.61;-0.76;43.78
23.30;57.39;2.40;2.29;3.27;32.45
18.51;55.76;2.40;-0.98;0.00;30.82
47.48;52.49;2.40;2.29;1.63;10.67
12.09;36.37;3.27;16.77;6.43;8.28
7.19;19.49;2.40;-2.61;-4.79;-2.94
-7.30;5.01;4.03;-37.24;-1.63;-17.42
-9.69;-20.80;-0.76;1.42;-1.63;-20.69
-1.63;-20.80;21.02;-2.61;2.40;-24.72
-7.30;-40.08;5.66;-4.14;2.40;-39.20
-21.02;-53.80;-3.16;-13.07;-0.76;-30.38
-18.51;-57.83;-1.63;-6.64;4.03;-30.38
-11.33;-51.40;-2.40;-1.74;-20.91;-28.75
-10.45;-54.67;-3.16;-5.01;4.90;-27.12
-8.06;-40.95;-0.76;17.53;-0.76;-17.42
-20.15;5.01;-1.63;0.65;2.40;-1.31
-4.03;-7.95;-1.63;18.40;4.03;9.15
2.40;11.43;-1.63;3.05;-9.69;22.76
1.63;22.76;-0.76;4.68;0.00;26.79
4.79;41.27;0.87;6.32;3.27;62.29
16.88;44.43;-0.76;3.05;3.27;40.51
16.88;54.12;0.87;5.44;-0.76;37.35
18.51;39.64;0.00;19.17;6.43;37.35
16.12;49.33;5.66;0.65;0.87;29.29
15.25;41.27;2.40;3.05;-0.76;17.97
7.19;25.92;3.27;-2.61;-3.16;19.60
3.16;5.01;0.87;-2.61;-7.19;1.85
-4.90;-16.01;0.87;-5.77;-20.15;-33.54
-11.33;-24.07;-2.40;-5.01;-13.61;-17.42
-13.72;-46.61;-4.03;-2.61;-3.16;-38.44
-20.15;-49.77;-3.16;-9.80;-1.63;-36.05
-16.99;-51.40;-2.40;-4.14;0.00;-37.57
-18.51;-52.16;-5.66;-2.61;4.03;-36.81
-14.48;-53.80;-4.03;0.65;5.66;-32.02
-14.48;-45.74;-1.63;-0.11;4.90;-24.72
-8.93;-21.56;-1.63;-9.04;6.43;-22.32
0.76;-8.71;-0.76;0.65;5.66;-12.63
4.03;5.77;-1.63;-5.01;4.03;-11.00
4.79;15.46;0.00;-0.11;0.00;13.18
9.69;42.04;0.87;4.68;-6.43;35.72
17.75;52.49;5.66;3.05;-6.43;41.38
16.12;58.15;4.03;6.32;-6.43;52.60
-8.06;44.43;0.87;3.05;-1.63;51.84
12.09;43.67;0.00;-3.38;-1.63;37.35
7.19;16.23;0.87;24.83;-3.16;34.09
3.16;23.52;1.63;1.42;-4.79;11.54
3.16;9.80;2.40;1.42;1.63;-4.57
5.66;-4.68;1.63;-1.74;-8.06;-36.81
-1.63;-19.17;-1.63;-10.67;-9.69;-32.02
-17.75;-41.71;-1.63;-4.14;1.63;-48.13
-15.35;-46.61;-1.63;-3.38;-1.63;-43.23
-21.78;-61.09;-3.16;-31.58;4.03;-27.99
-18.51;-49.77;-4.03;1.42;5.66;-64.25
-19.38;-49.00;-3.16;-8.17;4.03;-27.12
-7.30;-36.05;-1.63;-0.11;15.35;-17.42
-0.87;-25.59;-1.63;6.32;-4.79;-9.37
-9.69;-39.31;-1.63;10.35;2.40;1.85
-20.15;5.01;-2.40;-0.98;4.03;16.33
3.16;19.49;-1.63;7.95;6.43;14.70
15.25;21.89;-1.63;-0.11;3.27;38.88
21.78;55.76;0.00;7.95;1.63;39.75
16.88;48.46;-1.63;3.92;1.63;1.09
-3.27;42.91;2.40;-6.64;0.00;34.09
10.45;44.43;3.27;2.29;-4.79;22.76
10.45;31.58;1.63;-8.17;1.63;9.15
12.09;30.82;4.03;0.65;-3.16;-15.03
1.63;-5.44;0.87;-2.61;-5.66;1.09
-0.87;-7.95;-1.63;-7.41;-8.06;-3.81
5.66;-24.07;0.00;2.29;-7.19;-11.00
-8.93;-42.58;-1.63;-8.17;-8.06;-40.84
-10.45;-23.20;-4.03;-8.17;-1.63;-52.16
-20.15;-57.06;-2.40;-2.61;4.03;-41.60
-16.99;-49.77;-4.79;-1.74;1.63;-59.35
-14.48;-37.68;-3.16;1.42;2.40;-49.66
-15.35;-35.28;-6.43;-1.74;4.03;-23.96
-8.06;-21.56;-3.16;-1.74;3.27;-1.31
3.16;-22.43;-1.63;-7.41;8.93;14.70
2.40;9.80;8.93;10.35;2.40;27.66
3.16;22.76;-1.63;9.47;-4.03;39.75
8.82;39.64;-1.63;5.44;-6.43;38.11
13.72;49.33;3.27;7.08;1.63;39.75
14.48;56.52;4.03;9.47;-4.79;41.38
16.88;47.70;2.40;-28.31;-4.03;34.09
20.15;50.97;-1.63;1.42;-4.03;26.03
12.09;38.01;3.27;1.42;-8.82;19.60
16.12;22.76;0.87;5.44;-8.06;25.26
-0.00;4.14;-1.63;-1.74;-0.76;-8.60
-8.06;-13.50;-7.19;-3.38;0.00;-11.87
-13.72;-20.80;-2.40;-7.41;4.03;-24.72
-16.99;-36.92;-5.66;-9.80;4.03;-35.17
-17.75;-47.37;-4.03;-5.01;4.03;-45.63
-23.41;-73.94;-1.63;19.17;-3.16;-36.81
-21.02;-46.61;-3.16;-0.98;4.03;-36.05
-12.09;-51.40;-6.43;-1.74;1.63;-46.50
-11.33;-34.52;-11.22;-2.61;3.27;-36.05
-21.78;-31.25;-6.43;-0.11;-2.40;-9.37
-9.69;-19.17;-27.33;-1.74;0.87;26.79
8.82;13.07;4.03;1.42;4.03;18.73
18.51;25.16;1.63;3.92;-4.03;19.60
20.15;44.43;-1.63;6.32;-9.69;42.14
-4.03;53.36;3.27;28.86;-16.12;25.26
15.25;55.76;4.03;-2.61;-0.76;26.03
23.30;49.33;8.06;6.32;1.63;26.79
16.88;43.67;0.87;5.44;2.40;27.66
11.22;35.61;5.66;3.05;-3.16;29.29
8.06;23.52;3.27;-8.17;-3.16;13.94
4.79;8.17;-1.63;5.44;-2.40;0.22
8.82;-12.74;-1.63;-1.74;-12.85;-23.09
-1.63;-32.89;-0.76;-3.38;-7.19;-23.96
-15.35;-44.10;-2.40;-5.77;0.00;-32.78
-18.51;-53.80;-2.40;16.01;6.43;-44.87
-22.54;-57.06;-2.40;-0.11;4.03;-40.08
-14.48;-53.80;-1.63;1.42;5.66;-28.75
-21.02;-51.40;-4.03;24.07;18.51;-24.72
-10.45;-39.31;-2.40;-0.98;4.90;-24.72
-2.40;-20.80;-1.63;-0.11;4.03;-8.60
3.16;-3.05;-28.21;1.42;2.40;25.26
36.26;15.46;-1.63;3.05;4.03;3.48
36.26;21.89;-0.76;6.32;4.03;26.79
4.79;35.61;7.30;4.68;0.87;42.91
8.06;51.73;0.87;-0.11;-1.63;45.41
15.25;59.02;2.40;4.68;-0.76;41.38
15.25;54.12;-8.06;5.44;-8.06;34.85
15.25;56.52;4.03;-5.01;-4.79;32.45
10.45;30.82;7.30;3.05;-4.79;17.97
5.66;21.89;10.45;2.29;-4.79;1.09
3.16;30.82;-1.63;22.43;-4.03;-20.69
-5.66;-20.80;-1.63;-4.14;-4.03;-16.66
-31.47;-42.58;-1.63;7.95;14.48;-22.32
-21.78;-46.61;-10.45;-5.01;-3.16;-36.81
-22.54;-58.70;-1.63;7.08;0.00;-52.93
-21.02;-51.40;-4.03;-4.14;-12.85;-41.60
-10.45;-50.64;-1.63;3.05;4.90;-28.75
-12.09;-47.37;-12.09;-3.38;4.03;-28.75
-17.75;-37.68;-2.40;3.05;12.96;-24.72
1.63;-20.80;0.00;2.29;6.43;-16.66
-2.40;-5.44;-1.63;-0.11;5.66;19.60
11.22;10.67;23.41;-0.98;4.03;31.69
8.06;21.89;-0.76;3.05;-7.19;11.54
13.72;38.88;0.87;3.05;0.00;26.79
15.25;47.70;2.40;3.05;3.27;29.29
16.88;44.43;3.27;5.44;1.63;40.51
16.88;30.82;5.66;5.44;12.96;39.75
-14.48;46.06;4.03;6.32;-6.43;32.45
10.45;31.58;-0.76;0.65;-3.16;26.03
3.16;25.92;6.43;2.29;-4.79;9.91
17.75;2.61;0.87;-0.11;1.63;-18.30
-5.66;-12.74;-0.76;1.42;-8.06;-11.00
0.76;-15.14;-1.63;16.01;-9.69;-26.35
-10.45;-37.68;-5.66;-2.61;-11.22;-44.87
-8.93;-49.00;-3.16;-3.38;-8.06;-24.72
-15.35;-49.00;-5.66;-6.64;1.63;-27.12
-15.35;-49.00;-8.82;-2.61;4.03;-48.13
-15.35;-49.00;-1.63;-5.01;2.40;-27.99
-45.08;-20.80;-2.40;-4.14;2.40;-24.72
-9.69;-21.56;-5.66;-3.38;-22.54;-1.31
-0.87;-3.92;-2.40;3.05;4.03;11.54
5.66;17.10;0.87;3.05;4.90;-1.31
8.06;20.26;-2.40;5.44;4.90;9.91
5.66;42.04;2.40;1.42;1.63;25.26
28.97;56.52;12.09;8.71;4.03;28.42
19.28;56.52;5.66;0.65;2.40;32.45
16.12;47.70;1.63;7.08;4.03;26.79
11.22;30.82;1.63;5.44;3.27;34.85
16.12;35.61;3.27;-16.23;-0.76;26.03
8.82;22.76;-1.63;-5.01;-4.79;8.28
3.16;4.14;-1.63;-3.38;-4.79;-16.66
15.25;-11.98;-1.63;-5.01;-6.43;-20.69
-13.72;-22.43;-7.19;-6.64;-4.79;-32.78
-13.72;-44.98;-4.79;-4.14;0.00;-52.16
-10.45;-49.77;-2.40;-6.64;-4.03;-40.08
-5.66;-56.19;-4.79;-0.98;-10.45;-64.25
-16.99;-56.19;10.45;-6.64;-7.19;-70.68
-13.72;-46.61;-3.16;-3.38;1.63;-23.09
-13.72;-44.10;-1.63;-3.38;1.63;-15.03
-11.33;-26.46;7.30;-1.74;4.03;18.73
0.76;-9.47;-1.63;3.05;3.27;8.28
4.03;7.41;-1.63;-17.86;4.03;5.12
4.79;29.19;-1.63;0.65;3.27;5.12
18.51;44.43;16.12;8.71;1.63;26.79
21.78;55.76;2.40;7.95;0.00;31.69
10.45;49.33;5.66;4.68;-8.06;26.79
14.48;43.67;4.03;-0.98;-8.82;41.38
11.22;47.70;0.87;-1.74;-1.63;33.32
26.57;38.88;4.03;4.68;-2.40;13.94
5.66;27.55;4.03;1.42;1.63;1.85
3.16;5.01;0.00;-16.23;-4.03;-8.60
-10.45;-14.37;-1.63;-1.74;-1.63;-15.90
-0.00;-20.80;-0.76;-8.17;-22.54;-30.38
-4.03;-44.10;-2.40;-3.38;0.00;-48.13
-5.66;-47.37;-1.63;-0.11;-4.03;-44.87
-10.45;-57.06;-4.03;-0.98;1.63;-33.54
-22.54;-50.64;-2.40;-2.61;4.03;-33.54
-14.48;-59.46;-3.16;-2.61;4.03;-27.12
-12.09;-35.28;-2.40;3.05;4.03;1.85
-8.93;-28.10;-1.63;-7.41;4.90;13.94
-8.06;-7.95;-1.63;-0.11;6.43;38.88
2.40;15.46;-1.63;-22.76;19.38;47.81
4.03;22.76;-0.76;-0.11;4.03;30.82
8.82;43.67;6.43;6.32;-3.16;52.60
14.48;52.49;0.87;7.95;-1.63;14.70
15.25;51.73;1.63;6.32;-8.06;9.91
12.09;50.97;4.03;1.42;-4.79;9.91
15.25;36.37;5.66;2.29;-8.06;16.33
-7.30;25.16;4.90;18.40;-8.06;9.91
14.48;25.16;2.40;1.42;-4.79;1.09
5.66;6.64;0.00;-0.11;-8.06;-11.87
-4.90;-24.83;2.40;-25.16;-3.16;-16.66
-5.66;-26.46;-1.63;-36.37;-4.79;-32.02
-8.06;-45.74;5.66;-4.14;4.03;-19.06
-18.51;-80.37;-2.40;-2.61;-4.03;-28.75
-17.75;-59.46;-1.63;-9.04;0.00;-34.41
-13.72;-53.80;-13.72;-2.61;1.63;-56.19
-12.96;-50.64;-8.82;-25.92;3.27;-32.02
-10.45;-41.71;-5.66;-3.38;4.90;-11.87
-2.40;-24.83;-1.63;-1.74;4.90;-6.21
11.22;-11.98;-2.40;-0.11;2.40;-12.63
6.43;12.20;-1.63;10.35;0.00;1.85
8.82;22.76;0.87;-5.01;2.40;22.00
13.72;39.64;0.00;-1.74;3.27;35.72
15.25;54.12;4.03;7.08;8.06;40.51
17.75;50.97;3.27;2.29;-4.79;32.45
20.15;50.97;3.27;7.08;-8.82;32.45
20.15;54.99;4.03;1.42;-3.16;28.42
5.66;5.77;6.43;-3.38;0.00;16.33
10.45;25.92;-0.76;3.05;2.40;2.72
0.76;-20.80;-0.76;2.29;2.40;-16.66
-15.35;-8.71;-0.76;-4.14;0.00;-23.09
-13.72;-20.80;10.45;-5.01;3.27;-6.21
-13.72;-44.10;28.21;-7.41;0.00;-23.96
-9.69;-42.58;-1.63;-2.61;4.03;-37.57
8.06;-57.06;-2.40;-8.17;-4.79;-26.35
-7.30;-58.70;-1.63;18.40;-21.67;-23.09
-11.33;-46.61;-1.63;-1.74;0.00;-48.90
-10.45;-42.58;-5.66;-3.38;4.03;-29.51
-1.63;-21.56;6.43;0.65;4.03;-20.69
1.63;-6.32;8.93;2.29;6.43;13.94
4.03;5.01;-1.63;4.68;8.06;17.97
4.03;21.13;0.00;4.68;6.43;30.82
12.09;36.37;0.00;6.32;4.03;52.60
8.82;51.73;0.87;15.14;3.27;39.75
13.72;50.97;4.03;-4.14;-0.76;38.88
16.12;13.07;3.27;-13.07;-3.16;41.38
16.12;56.52;7.30;4.68;-3.16;30.82
8.06;33.21;-12.85;-0.98;-4.03;1.09
4.03;17.10;3.27;-0.98;-8.82;-3.81
0.76;5.01;-0.76;11.98;-9.69;-6.97
-0.87;-7.95;-3.16;-0.98;-6.43;-13.39
-9.69;-25.59;-1.63;-3.38;-6.43;-47.26
-21.78;-48.13;-1.63;-2.61;-4.79;-34.41
-22.54;-57.06;0.87;-9.80;3.27;-36.05
-17.75;-59.46;-8.82;-9.80;4.03;-28.75
-9.69;-57.06;-1.63;1.42;4.03;-48.13
-14.48;-49.77;-1.63;-0.98;-0.76;-46.50
-7.30;-28.86;-5.66;-0.98;4.03;-27.12
-16.99;-20.04;-1.63;1.42;5.66;-2.18
-3.27;-5.44;-0.76;-3.38;-0.76;17.97
3.16;17.86;3.27;5.44;9.69;18.73
16.88;28.31;0.87;3.05;3.27;26.03
19.28;41.27;0.00;6.32;-3.16;43.78
16.88;28.31;4.03;7.95;-4.03;42.91
16.12;56.52;4.03;6.32;-3.16;27.66
12.85;51.73;2.40;3.05;-1.63;26.03
12.85;46.06;2.40;8.71;-4.79;22.76
16.12;47.70;4.03;3.05;-4.03;26.03
43.45;18.73;3.27;-2.61;-7.19;11.54
3.16;3.38;1.63;-5.01;-4.79;-7.84
-7.30;-7.95;0.00;-2.61;-6.43;-22.32
0.76;-21.56;-1.63;-3.38;-6.43;-37.57
-12.96;-42.58;-1.63;-1.74;2.40;-38.44
-8.93;-47.37;-2.40;-2.61;4.90;-24.72
-4.03;-51.40;-3.16;-0.98;2.40;-11.87
-22.54;-51.40;-5.66;-1.74;4.03;-6.21
-18.51;-46.61;-1.63;-2.61;4.03;-0.54
-8.93;-37.68;-2.40;-3.38;8.06;-12.63
-0.00;-12.74;-1.63;-3.38;1.63;-27.12
-2.40;-3.92;-1.63;2.29;4.03;-15.90
4.79;42.91;0.00;6.32;2.40;-11.00
4.79;23.52;-0.76;1.42;-0.76;1.09
16.12;40.40;-0.76;0.65;-1.63;36.48
13.72;47.70;2.40;6.32;-2.40;49.44
10.45;52.49;-0.76;0.65;-0.76;40.51
12.09;46.06;1.63;3.05;-17.64;38.88
19.28;51.73;2.40;5.44;-11.22;33.32
8.06;33.98;-1.63;-0.11;-11.22;21.24
6.43;25.92;-0.76;-0.11;-7.19;3.48
8.06;5.01;4.03;-4.14;-3.16;-15.03
3.16;9.04;0.87;-9.80;-3.16;-10.24
-2.40;-20.80;0.00;-32.34;0.87;-15.90
-10.45;-44.98;-4.03;-12.20;14.48;-30.38
-21.78;-58.70;-1.63;-1.74;4.03;-30.38
-18.51;-54.67;-1.63;-32.34;16.12;-38.44
-8.06;-55.43;-3.16;36.15;-8.06;-48.90
-25.81;-49.00;-3.16;-15.46;8.06;-40.08
-8.06;-44.10;-3.16;-3.38;4.03;-25.48
-7.30;-24.07;-1.63;-15.46;0.87;-20.69
-1.63;-16.01;-1.63;1.42;-4.03;-6.21
4.03;9.80;-18.51;-0.11;-7.19;9.91
-0.87;16.23;2.40;-0.11;4.03;24.39
-4.03;25.16;3.27;1.42;-21.67;38.11
23.30;51.73;32.23;9.47;-0.76;46.94
18.51;56.52;4.03;2.29;3.27;56.63
18.51;54.12;2.40;1.42;-1.63;35.72
18.51;50.09;8.93;3.05;-2.40;28.42
8.82;35.61;2.40;-1.74;-8.06;13.18
-1.63;18.73;3.27;-3.38;-6.43;1.09
-0.87;4.14;0.87;-3.38;-8.06;-11.00
-4.03;-8.71;-0.76;30.49;-21.67;-22.32
-8.06;-21.56;-1.63;-5.01;6.43;-24.72
0.76;-38.55;-1.63;-3.38;0.87;-39.20
-8.93;-67.52;-2.40;-4.14;4.03;-46.50
-15.35;-55.43;-3.16;-4.14;1.63;-65.01
-13.72;-53.80;-7.19;-5.01;1.63;-32.02
-15.35;-50.64;-8.82;-2.61;4.03;-23.09
-14.48;-33.65;-3.16;-2.61;-21.67;-2.94
-4.90;-24.83;-3.16;-2.61;9.69;-2.94
-4.03;-7.95;-0.76;6.32;4.90;18.73
3.16;15.46;-0.76;4.68;2.40;18.73
8.82;23.52;0.87;3.05;5.66;13.94
14.48;39.64;0.00;6.32;-20.91;47.81
20.91;54.99;2.40;5.44;-4.79;70.35
25.81;56.52;3.27;-3.38;-6.43;41.38
19.28;74.27;6.43;3.05;-5.66;45.41
12.09;47.70;0.00;-0.11;-2.40;40.51
3.16;34.85;7.30;-5.01;-8.06;21.24
8.82;22.76;-3.16;1.42;-3.16;1.85
-8.93;5.77;-0.76;-22.76;2.40;-24.72
-4.03;-16.01;-0.76;12.74;29.08;-28.75
-7.30;-23.20;-0.76;-3.38;29.08;-36.05
-18.51;-37.68;-2.40;-3.38;0.87;-41.60
-26.57;-22.43;-3.16;-7.41;-8.06;-24.72
-16.99;-56.19;2.40;-2.61;-0.76;-14.27
-7.30;-34.52;-2.40;-0.11;2.40;-24.72
-14.48;-46.61;-4.03;-5.01;2.40;-46.50
-8.93;-38.55;-11.22;-0.98;4.03;-54.56
-21.78;-22.43;-1.63;-0.98;-4.79;-36.05
3.16;-5.44;-1.63;1.42;-1.63;-2.94
3.16;13.83;0.87;1.42;4.03;38.88
3.16;41.27;-0.76;-0.11;-1.63;27.66
13.72;38.88;3.27;7.08;0.87;3.48
20.91;45.30;4.03;4.68;-3.16;34.85
16.12;55.76;4.90;-14.70;-3.16;37.35
20.91;54.99;-0.76;6.32;-7.19;38.11
16.12;51.73;3.27;3.05;14.48;26.79
8.82;36.37;-1.63;4.68;-1.63;25.26
8.82;21.89;0.87;1.42;-1.63;17.21
3.16;8.17;0.87;-4.14;-3.16;1.09
2.40;-7.95;-27.33;-2.61;2.40;-3.81
-6.43;-19.17;0.87;-5.77;-3.16;-6.97
5.66;-44.98;-1.63;-6.64;-3.16;-33.54
-16.99;-52.16;-6.43;-5.01;1.63;-33.54
-21.78;-57.83;-3.16;-1.74;2.40;-25.48
-11.33;-49.77;-3.16;-2.61;4.03;-24.72
4.03;-49.00;-6.43;3.05;4.90;-36.81
-12.09;-34.52;-2.40;2.29;4.03;-27.99
-9.69;-21.56;-2.40;5.44;4.03;-11.00
-4.90;-7.08;-1.63;7.95;4.90;-6.97
6.43;6.64;0.00;7.08;-3.16;16.33
4.03;17.10;-1.63;-1.74;17.75;11.54
8.82;35.61;-1.63;4.68;-8.06;26.79
14.48;42.91;2.40;3.05;-7.19;43.78
24.18;52.49;3.27;10.35;-5.66;40.51
13.72;50.97;2.40;9.47;0.00;42.14
16.12;46.06;2.40;2.29;0.87;38.88
10.45;33.21;-0.76;2.29;-5.66;14.70
-16.99;18.73;1.63;10.35;-24.18;-9.37
2.40;5.77;2.40;-1.74;1.63;-23.09
-11.33;-11.98;-1.63;-8.17;0.87;-27.12
-7.30;-20.80;-0.76;-3.38;0.87;-24.72
-17.75;-18.40;-1.63;-8.17;4.03;-35.17
-16.99;-52.16;-2.40;-0.11;1.63;-29.51
-10.45;-57.83;-1.63;-2.61;1.63;-42.47
-12.09;-53.80;-1.63;-4.14;4.03;-36.81
-18.51;-53.80;-4.03;-0.98;-1.63;-23.09
-20.15;-40.95;28.21;-0.98;3.27;-23.09
23.30;-29.62;-4.79;-1.74;1.63;-7.84
-4.90;-5.44;-5.66;8.71;1.63;-10.24
3.16;13.07;0.00;6.32;4.03;22.00
-12.96;26.79;-1.63;-20.26;-4.79;22.00
11.22;31.58;0.00;-0.98;-7.19;35.72
-1.63;49.33;4.03;-0.11;-0.76;43.78
31.36;57.39;2.40;-0.11;-1.63;9.91
27.33;48.46;4.03;5.44;-5.66;28.42
21.78;43.67;3.27;5.44;-0.76;30.06
12.85;39.64;4.03;1.42;-4.79;22.00
-4.90;30.82;1.63;-30.82;-1.63;5.88
8.06;5.01;-4.03;-0.11;-1.63;-13.39
-4.90;-9.47;-1.63;16.01;-3.16;-13.39
-9.69;-20.04;0.00;-7.41;-7.19;-20.69
-16.99;-40.95;-5.66;-3.38;-2.40;-54.56
-21.02;-45.74;-1.63;-5.01;0.00;-23.09
-13.72;-54.67;-1.63;-5.01;0.00;-23.96
-20.15;-52.16;-3.16;-3.38;3.27;-24.72
-19.38;-48.13;-1.63;-0.98;3.27;-22.32
-13.72;-38.55;-16.88;-0.98;4.90;-4.57
-1.63;-23.20;0.00;1.42;8.93;1.85
2.40;-5.44;-0.76;4.68;4.90;32.45
3.16;5.77;-2.40;2.29;-4.03;19.60
4.03;17.10;0.87;5.44;-9.69;-6.21
3.16;35.61;0.00;-1.74;-4.79;-7.84
28.97;49.33;-0.76;1.42;2.40;6.64
12.85;54.99;0.87;3.05;-4.03;3.48
15.25;53.36;4.03;-1.74;-1.63;9.91
16.88;45.30;2.40;8.71;-30.60;26.03
20.91;38.01;1.63;-0.98;0.00;22.76
11.22;13.07;-1.63;-1.74;-0.76;13.94
3.16;5.01;10.45;-2.61;-0.76;-15.03
0.76;-16.77;-1.63;-5.01;-3.16;-4.57
-9.69;-21.56;-0.76;1.42;-3.16;2.72
-22.54;-37.68;-1.63;-3.38;3.27;-24.72
-14.48;-46.61;-5.66;-3.38;3.27;-19.93
-14.48;-57.06;-3.16;-3.38;2.40;-11.00
-16.99;-46.61;-25.81;-3.38;4.03;-26.35
-20.15;-46.61;-3.16;-0.11;4.03;-20.69
-12.96;-35.28;-1.63;-8.17;5.66;-15.90
-4.90;-23.20;11.33;3.05;4.03;-24.72
15.25;-5.44;-1.63;-5.77;3.27;1.09
3.16;14.70;-2.40;1.42;4.03;26.79
3.16;44.43;4.03;3.05;1.63;26.79
14.48;41.27;0.87;6.32;-4.03;34.09
16.12;48.46;0.87;5.44;-4.79;42.14
14.48;56.52;-0.76;6.32;-7.19;32.45
15.25;50.97;-0.76;-1.74;-19.28;29.29
16.12;46.94;-0.76;8.71;1.63;34.09
14.48;39.64;3.27;5.44;-3.16;26.03
8.06;29.19;2.40;-0.11;-10.45;3.48
4.79;7.41;-1.63;-2.61;-9.69;-24.72
1.63;-7.08;2.40;-7.41;-4.79;-1.31
-14.48;-16.77;-1.63;-3.38;-3.16;-20.69
-13.72;-37.68;-1.63;-8.17;-0.76;-46.50
-18.51;-53.80;-15.25;-9.80;-4.03;-40.08
-8.93;-49.77;-27.33;-3.38;-1.63;-50.53
-17.75;-46.61;-3.16;-4.14;-22.54;-46.50
-20.15;-49.00;-3.16;-2.61;25.05;-30.38
-4.03;-34.52;-1.63;1.42;27.44;-26.35
-4.03;-28.86;-1.63;4.68;4.03;-6.97
-3.27;-7.08;-1.63;2.29;4.03;15.57
8.06;7.41;4.03;1.42;2.40;18.73
8.82;17.86;-1.63;1.42;3.27;31.69
-10.45;43.67;2.40;-20.26;3.27;32.45
16.12;47.70;7.30;5.44;3.27;38.88
18.51;57.39;-14.48;2.29;4.03;38.11
16.12;45.30;2.40;-23.52;3.27;26.79
20.15;51.73;5.66;6.32;-1.63;34.09
12.09;28.31;3.27;26.46;-4.79;14.70
1.63;21.89;1.63;1.42;-5.66;1.09
0.76;1.74;1.63;3.05;-6.43;-16.66
-9.69;-10.35;8.93;-2.61;-6.43;-28.75
-15.35;-22.43;-0.76;-0.11;-6.43;-24.72
-16.99;-37.68;0.87;-5.01;-1.63;-54.56
-12.09;-51.40;-2.40;-5.01;3.27;-37.57
-5.66;-57.06;-1.63;-1.74;4.03;-38.44
-8.93;-46.61;-1.63;1.42;3.27;-45.63
-20.15;-46.61;-3.16;-2.61;3.27;-24.72
-15.35;-34.52;-2.40;-7.41;-0.76;-20.69
0.76;-23.20;-7.19;3.05;-11.22;-2.94
-8.93;0.11;-5.66;10.35;0.87;-4.57
2.40;7.41;0.87;1.42;3.27;18.73
8.82;13.83;0.87;2.29;3.27;17.97
21.78;38.88;2.40;7.95;1.63;26.79
25.81;55.76;2.40;8.71;4.03;28.42
16.88;59.02;2.40;-24.28;3.27;36.48
44.32;47.70;0.00;9.47;-7.19;26.79
16.88;50.97;3.27;8.71;-6.43;40.51
12.09;34.85;-1.63;5.44;-3.16;37.35
11.22;26.79;4.03;3.05;3.27;26.79
-0.87;5.77;4.03;-3.38;3.27;18.73
-4.03;-6.32;3.27;-1.74;-5.66;3.48
-12.09;-20.80;-1.63;-3.38;-6.43;-6.21
-12.96;-37.68;-1.63;17.53;-24.18;-24.72
-12.09;-44.10;-1.63;-4.14;5.66;-38.44
-20.15;-57.06;-1.63;-0.11;2.40;-74.71
-21.02;-60.22;-4.03;-5.01;2.40;-85.16
-33.87;-53.80;-5.66;11.98;0.00;-77.86
-8.93;-40.95;-8.82;-1.74;1.63;-85.16
-13.72;-23.20;-2.40;-2.61;4.03;-23.96
-0.87;-9.47;-1.63;3.05;4.90;15.57
3.16;6.64;-1.63;-0.11;2.40;22.00
8.06;15.46;0.87;12.74;1.63;34.85
9.69;39.64;0.00;-0.11;2.40;47.81
10.45;56.52;4.03;1.42;0.00;32.45
13.72;39.64;0.87;3.05;-1.63;50.20
34.63;52.49;3.27;5.44;12.96;50.97
23.30;46.94;4.03;-1.74;-0.76;67.95
29.84;39.64;4.03;-0.98;-14.48;31.69
11.22;17.10;2.40;-1.74;-8.06;9.15
-4.03;2.61;7.30;-1.74;-7.19;-6.97
3.16;-30.49;0.00;-25.92;-1.63;-15.90
-4.90;-24.83;-0.76;-3.38;2.40;-24.72
-20.15;-38.55;0.00;-0.98;4.03;-40.08
-9.69;-47.37;-1.63;-6.64;0.00;-41.60
-21.78;-77.21;-4.79;-3.38;4.03;-42.47
-18.51;-53.80;-8.82;-33.21;4.03;-44.87
-13.72;-48.13;-6.43;-4.14;3.27;-30.38
-12.09;-47.37;-4.79;2.29;6.43;-22.32
-7.30;-22.43;-4.03;-1.74;4.03;-2.18
3.16;-36.05;-1.63;2.29;4.90;4.25
13.72;-15.14;-4.03;4.68;-6.43;24.39
13.72;27.55;-0.76;7.95;-7.19;26.03
17.75;50.97;0.00;-0.11;0.00;49.44
15.25;47.70;-1.63;6.32;1.63;42.14
15.25;42.91;0.87;39.31;2.40;39.75
13.72;45.30;-12.09;10.35;1.63;34.85
14.48;49.33;-1.63;1.42;-3.16;27.66
21.78;33.98;0.87;-2.61;16.12;9.91
3.16;26.79;0.87;-0.98;12.09;1.09
3.16;5.01;-1.63;1.42;-7.19;-15.03
-4.90;-10.35;3.27;-2.61;-4.79;-50.53
-4.03;-19.17;12.96;-6.64;-1.63;-32.02
-9.69;-32.89;-2.40;-0.98;-0.76;-42.47
-17.75;-54.67;-4.03;-2.61;-3.16;-38.44
-20.15;-57.83;-1.63;-3.38;3.27;-49.66
-16.99;-51.40;-1.63;-28.31;3.27;-42.47
-16.99;-46.61;12.09;-0.11;5.66;-36.05
-1.63;-32.89;-6.43;-2.61;8.06;-11.87
-10.45;-19.17;-0.76;-2.61;9.69;-7.84
-4.90;-5.44;0.87;0.65;4.03;9.91
4.03;17.10;14.48;-0.11;4.90;17.97
10.45;20.26;-1.63;-25.92;5.66;32.45
18.51;39.64;-0.76;2.29;2.40;32.45
15.25;51.73;6.43;5.44;-3.16;44.54
16.88;58.15;11.33;10.35;4.03;45.41
20.15;49.33;6.43;2.29;1.63;37.35
15.25;62.18;4.03;-0.11;0.00;27.66
12.85;36.37;9.69;1.42;-4.03;26.79
9.69;22.76;6.43;3.05;-8.82;5.88
1.63;3.38;-16.88;-0.11;-6.43;-22.32
2.40;-15.14;11.33;-3.38;-9.69;-25.48
-7.30;-20.04;-1.63;15.14;0.87;-28.75
-7.30;-36.92;0.00;-8.17;-3.16;-41.60
-16.99;-49.00;-7.19;-6.64;0.87;-60.98
-24.18;-64.25;-2.40;-35.61;2.40;-43.23
-21.02;-52.16;-24.94;-1.74;4.03;-23.09
-20.15;-46.61;-16.12;-0.98;0.00;-26.35
-12.09;-44.10;-4.03;2.29;6.43;-16.66
-7.30;-23.20;-23.30;-0.98;0.00;-11.87
-4.90;0.11;-1.63;-28.31;5.66;14.70
1.63;10.67;-0.76;10.35;4.03;15.57
4.03;17.86;2.40;2.29;25.81;25.26
17.75;33.21;2.40;2.29;16.12;44.54
-17.75;46.94;3.27;3.05;0.00;29.29
51.51;54.12;0.87;5.44;-3.16;39.75
25.81;50.09;7.30;-0.98;-9.69;38.88
20.15;46.06;7.30;7.95;-1.63;45.41
15.25;40.40;1.63;-1.74;-1.63;16.33
-0.00;26.79;-1.63;-1.74;-8.06;-7.84
-2.40;5.77;-1.63;-2.61;-8.06;-20.69
1.63;-7.95;3.27;-4.14;-9.69;-11.00
-10.45;5.01;1.63;-1.74;-21.67;-17.42
-1.63;-41.71;0.87;-5.01;-4.03;-12.63
-13.72;-48.13;-1.63;-3.38;0.00;-41.60
-36.26;-39.31;-4.79;-3.38;-1.63;-48.13
-10.45;-50.64;1.63;-5.01;3.27;-57.72
-22.54;-48.13;-5.66;10.35;4.03;-48.13
-24.18;-34.52;-4.79;-0.11;4.03;-20.69
-7.30;-5.44;-1.63;-27.55;6.43;-9.37
0.76;-6.32;-1.63;2.29;4.90;15.57
3.16;7.41;-1.63;1.42;7.30;15.57
12.09;22.76;5.66;1.42;3.27;37.35
14.48;34.85;0.87;8.71;-0.76;38.88
15.25;47.70;0.87;25.59;-8.06;27.66
17.75;58.15;6.43;6.32;-9.69;26.03
20.15;54.99;8.93;12.74;-4.03;44.54
18.51;42.91;10.45;3.05;-4.03;38.88
14.48;34.85;24.18;6.32;-3.16;21.24
4.79;17.10;-1.63;-0.11;0.87;10.67
-4.03;5.77;-1.63;6.32;-6.43;-3.81
-4.90;-9.47;0.87;-4.14;-6.43;-9.37
1.63;-8.71;0.00;-3.38;1.63;-20.69
-10.45;-38.55;-1.63;-5.01;3.27;-40.08
-17.75;-55.43;0.87;20.80;2.40;-36.81
-36.26;-57.83;-4.03;-7.41;3.27;-45.63
-22.54;-52.16;-7.19;-3.38;1.63;-50.53
-22.54;-55.43;-1.63;-0.98;4.03;-27.12
-13.72;-44.98;-4.03;-30.82;5.66;-13.39
-6.43;-36.92;-8.82;2.29;4.90;-3.81
-1.63;-11.98;-4.79;-25.92;-1.63;5.88
3.16;7.41;0.87;-0.11;1.63;14.70
4.03;29.19;2.40;8.71;12.96;26.79
13.72;42.91;5.66;10.35;2.40;41.38
16.12;49.33;7.30;7.95;0.00;40.51
12.85;36.37;0.87;-7.41;-4.79;45.41
14.48;52.49;19.38;6.32;-3.16;39.75
18.51;48.46;1.63;2.29;-1.63;35.72
18.51;36.37;3.27;3.05;1.63;22.76
8.82;25.92;7.30;-0.11;0.87;-6.97
4.03;5.01;-1.63;-3.38;-1.63;-11.00
-0.87;-3.92;0.00;-9.80;12.96;-11.87
-7.30;-17.53;4.03;-1.74;-4.79;-19.06
-10.45;-44.10;-1.63;-2.61;-0.76;-35.17
-21.02;-48.13;-3.16;-29.19;1.63;-40.08
-22.54;-75.58;-5.66;0.65;0.87;-23.96
-14.48;-46.61;-4.79;-24.28;3.27;-35.17
-8.93;-50.64;-4.03;-16.23;0.87;-33.54
-9.69;-12.74;-3.16;-2.61;1.63;-24.72
-4.03;-23.20;-4.03;3.05;4.03;-6.97
4.03;-6.32;-3.16;-2.61;4.03;5.88
5.66;9.80;1.63;-0.11;1.63;22.76
7.19;21.89;-1.63;4.68;2.40;35.72
4.79;65.45;3.27;6.32;4.03;45.41
12.09;48.46;7.30;5.44;-0.76;35.72
16.12;54.99;0.00;2.29;12.09;26.79
14.48;52.49;5.66;1.42;-4.03;25.26
12.09;44.43;0.00;3.05;-6.43;26.79
12.85;55.76;0.87;-10.67;0.00;18.73
3.16;26.79;5.66;-1.74;-8.06;9.91
-0.87;4.14;33.11;-0.98;-8.06;1.09
0.76;-9.47;2.40;-17.86;-7.19;-19.06
-1.63;-24.07;-1.63;-10.67;-1.63;-36.05
-14.48;-46.61;15.35;-5.77;-4.79;-36.81
-22.54;-49.00;-31.36;-2.61;4.03;-35.17
-22.54;-55.43;-10.45;-4.14;0.87;-37.57
-7.30;-49.00;2.40;-4.14;-3.16;-55.32
-44.32;-46.61;-1.63;-0.98;3.27;-50.53
1.63;-36.92;-1.63;1.42;5.66;-26.35
1.63;-20.80;-1.63;0.65;4.03;1.09
2.40;-18.40;-1.63;5.44;4.90;27.66
3.16;14.70;-0.76;-1.74;4.03;47.81
4.79;22.76;2.40;5.44;19.38;32.45
10.45;32.34;2.40;3.05;16.12;46.94
13.72;54.12;-0.76;5.44;4.03;30.82
12.09;51.73;4.03;3.05;0.87;30.06
20.15;51.73;7.30;2.29;-18.51;26.79
16.12;49.33;4.03;1.42;-6.43;19.60
14.48;32.34;0.00;-1.74;-8.06;-12.63
15.25;28.31;6.43;3.05;-0.76;17.21
3.16;5.01;21.02;2.29;-3.16;-0.54
-4.03;-15.14;-1.63;1.42;-4.03;1.85
-5.66;-24.07;-10.45;-2.61;0.00;-19.06
-8.06;-44.98;-0.76;-1.74;0.00;-62.62
-19.38;-49.77;-0.76;-2.61;-4.03;-39.20
-22.54;-48.13;-1.63;-9.04;2.40;-35.17
-18.51;-61.86;-4.03;-2.61;0.87;-58.59
-17.75;-49.00;-5.66;-14.70;0.87;-50.53
-12.96;-47.37;-1.63;4.68;4.03;-35.17
-16.99;-11.98;-4.03;-1.74;3.27;-22.32
1.63;-9.47;-1.63;-3.38;-0.76;8.28
11.22;14.70;0.87;1.42;-0.76;23.63
8.82;19.49;4.03;10.35;4.90;26.79
12.09;41.27;4.03;7.08;8.06;51.84
17.75;49.33;2.40;3.05;-6.43;44.54
17.75;51.73;-0.76;3.05;1.63;43.78
12.09;46.06;5.66;1.42;-0.76;39.75
7.19;41.27;4.03;5.44;-4.79;26.79
8.06;32.34;3.27;3.05;-5.66;51.84
3.16;20.26;2.40;-0.98;-3.16;30.82
6.43;10.67;1.63;4.68;0.00;-0.54
3.16;13.07;-0.76;-1.74;-6.43;-50.53
-0.87;-20.80;-24.18;5.44;0.00;-6.21
-8.93;-37.68;-1.63;-6.64;-3.16;-44.87
-13.72;-49.77;-3.16;-1.74;-3.16;-41.60
-47.59;-58.70;-1.63;-2.61;0.00;-50.53
-9.69;-55.43;-1.63;-1.74;25.81;-48.13
-15.35;-49.00;-8.82;-4.14;4.03;-11.00
-13.72;-36.92;-3.16;3.05;7.30;-19.93
-12.09;-25.59;-3.16;0.65;10.45;0.22
28.21;-12.74;-3.16;5.44;8.06;6.64
3.16;5.01;2.40;1.42;9.69;7.51
12.09;32.34;3.27;-17.10;3.27;17.97
13.72;35.61;0.00;7.95;2.40;38.88
18.51;48.46;0.87;3.05;-4.03;38.88
19.28;54.12;6.43;-25.92;-2.40;41.38
12.09;54.12;5.66;-0.98;-9.69;39.75
8.82;49.33;2.40;3.05;-3.16;27.66
5.66;35.61;3.27;-0.98;-10.45;13.18
7.19;17.10;3.27;1.42;-12.09;-2.18
3.16;9.04;0.87;-2.61;-9.69;-15.90
3.16;-7.95;-1.63;-19.49;-5.66;-35.17
-7.30;-20.80;-2.40;-5.01;-3.16;-38.44
-21.02;-44.98;-3.16;-6.64;-0.76;-43.23
-22.54;-53.80;-1.63;-9.80;18.51;-38.44
-22.54;-51.40;-1.63;-13.83;4.90;-36.81
-8.93;-24.83;-1.63;2.29;3.27;-37.57
-8.06;-46.61;-3.16;1.42;15.35;-23.96
-9.69;-32.89;-1.63;-0.11;5.66;-3.81
-7.30;-16.01;-5.66;-1.74;4.03;-6.21
-2.40;-6.32;0.00;-0.98;4.03;6.64
-15.35;8.17;-1.63;-1.74;7.30;0.22
10.45;27.55;0.00;4.68;4.03;44.54
8.82;47.70;-0.76;-28.31;0.00;37.35
20.15;55.76;6.43;5.44;0.00;41.38
20.91;51.73;7.30;7.95;3.27;52.60
24.94;56.52;2.40;3.05;-0.76;58.26
32.23;54.12;2.40;-0.98;0.00;64.69
-0.87;46.94;0.00;-1.74;-1.63;30.82
16.12;21.89;-2.40;1.42;-3.16;1.09
-4.03;-5.44;0.00;10.35;12.96;-24.72
0.76;-12.74;0.00;-3.38;-4.79;-32.78
-12.09;-24.07;-5.66;-0.11;-3.16;-55.32
-21.02;-72.31;-5.66;-5.01;-4.79;-61.75
-14.48;-50.64;-1.63;-2.61;-0.76;-37.57
-20.15;-55.43;-5.66;-9.80;-8.06;-35.17
-8.93;-46.61;-2.40;-3.38;-8.82;-40.08
-1.63;-55.43;-1.63;-0.11;-6.43;-32.02
-4.90;-34.52;5.66;-1.74;3.27;-14.27
-7.30;-20.04;4.03;-1.74;4.90;-1.31
2.40;-4.68;8.06;-0.11;5.66;9.15
-15.35;13.07;0.87;2.29;4.03;15.57
-13.72;21.89;-1.63;3.05;4.03;23.63
16.88;36.37;11.33;4.68;3.27;41.38
32.23;53.36;5.66;4.68;4.03;45.41
19.28;30.82;5.66;6.32;1.63;39.75
16.12;49.33;12.96;3.05;-7.19;34.85
12.85;27.55;3.27;7.95;-8.06;32.45
12.09;30.82;0.87;-1.74;-6.43;22.00
7.19;20.26;4.03;0.65;-8.06;17.97
-0.87;0.98;0.00;-2.61;-4.79;1.09
-4.90;-15.14;0.00;-1.74;23.41;-7.84
-8.93;-18.40;0.87;-4.14;3.27;-52.16
-10.45;-36.92;-1.63;2.29;1.63;-43.23
-18.51;-52.16;-2.40;-2.61;-21.67;-46.50
-17.75;-51.40;-3.16;-3.38;4.90;-47.26
-15.35;-51.40;-4.03;-2.61;8.06;-50.53
-22.54;-46.61;-1.63;1.42;4.03;-47.26
-14.48;-38.55;-4.79;-1.74;4.03;-30.38
-14.48;-44.10;-0.76;2.29;5.66;-4.57
-4.03;-7.08;-1.63;3.05;16.99;26.03
5.66;9.04;2.40;4.68;3.27;22.76
15.25;23.52;-1.63;2.29;4.90;26.03
27.33;43.67;3.27;5.44;4.03;30.82
24.94;49.33;-4.03;10.35;2.40;37.35
19.28;52.49;0.87;3.05;-3.16;13.18
16.88;50.97;2.40;-0.11;-12.09;26.03
17.75;46.94;1.63;-0.98;-17.64;39.75
14.48;75.03;2.40;3.05;-20.91;26.79
12.09;29.19;4.03;2.29;-10.45;4.25
1.63;6.64;0.00;-3.38;-9.69;-15.03
-8.93;-2.29;-0.76;-0.11;-1.63;-27.99
-7.30;-20.80;-0.76;-2.61;-4.79;-24.72
-15.35;-46.61;-0.76;-5.01;3.27;-44.87
-18.51;-46.61;-4.03;-3.38;1.63;-55.32
-19.38;-57.06;-1.63;24.07;3.27;-35.17
-18.51;-49.00;-8.06;-10.67;4.03;-36.81
-13.72;-59.46;-9.69;-2.61;4.03;0.22
-4.90;-41.71;-4.79;-1.74;4.03;-14.27
-10.45;-29.62;16.12;5.44;6.43;12.31
-1.63;0.98;-1.63;3.05;8.06;21.24
4.79;9.80;-0.76;6.32;4.90;26.79
4.79;15.46;1.63;6.32;4.03;22.76
10.45;41.27;-0.76;4.68;3.27;39.75
14.48;36.37;3.27;-2.61;-3.16;21.24
14.48;56.52;0.00;4.68;-0.76;16.33
39.42;52.49;0.87;5.44;0.00;34.85
16.12;47.70;0.87;5.44;-6.43;35.72
12.85;41.27;-16.88;-0.11;-3.16;17.21
7.19;25.92;2.40;-0.98;-4.03;6.64
3.16;10.67;-0.76;-30.82;1.63;5.88
2.40;-10.35;-1.63;-2.61;4.03;-6.97
-5.66;-24.83;-1.63;-0.98;6.43;-17.42
-20.15;-44.98;-1.63;-4.14;4.03;-42.47
-19.38;-51.40;-2.40;-3.38;4.90;-55.32
-20.15;-56.19;-1.63;-2.61;4.90;-67.41
-36.26;-49.00;-5.66;-7.41;0.00;-46.50
-16.12;-60.22;-5.66;-5.01;4.03;-24.72
-14.48;-40.95;-1.63;-2.61;0.00;-9.37
-12.09;-24.83;-2.40;-2.61;4.03;17.21
-2.40;-6.32;-29.84;2.29;3.27;26.03
4.03;-20.80;-0.76;-1.74;5.66;27.66
12.09;21.89;-0.76;3.05;4.03;18.73
16.12;56.52;1.63;1.42;-1.63;15.57
43.45;55.76;22.54;4.68;-0.76;17.97
24.94;56.52;4.03;-1.74;-6.43;15.57
13.72;25.16;-0.76;1.42;-7.19;24.39
16.12;45.30;4.03;-0.11;-9.69;31.69
11.22;36.37;4.03;1.42;1.63;26.03
10.45;30.82;0.87;2.29;0.00;3.48
-0.00;-18.40;0.87;-2.61;-3.16;-6.21
-0.87;-7.95;-21.78;-1.74;-7.19;-17.42
-1.63;-20.80;-1.63;-5.01;-12.85;-27.12
-5.66;-42.58;-5.66;-1.74;-6.43;-39.20
-10.45;-46.61;-9.69;-8.17;-4.03;-39.20
-21.02;-59.46;-2.40;-5.01;-7.19;-44.87
-23.41;-55.43;-6.43;-2.61;-8.82;-39.20
-12.96;-46.61;-5.66;-2.61;4.03;-24.72
-16.99;-42.58;-3.16;-38.88;3.27;-19.93
-0.87;-28.10;10.45;3.05;4.03;-7.84
-1.63;-11.98;-11.22;-2.61;4.03;22.76
3.16;12.20;-1.63;3.05;3.27;14.70
8.06;23.52;-1.63;4.68;4.90;23.63
14.48;44.43;0.87;5.44;4.03;42.91
18.51;51.73;1.63;-0.11;0.00;46.94
20.91;50.97;5.66;4.68;3.27;41.38
15.25;55.76;1.63;4.68;0.00;18.73
16.12;48.46;3.27;-0.98;3.27;39.75
12.85;33.21;0.87;5.44;4.03;26.03
10.45;21.89;-1.63;6.32;2.40;21.24
2.40;4.14;-7.19;-5.01;-6.43;-3.81
-0.87;-16.77;0.00;28.86;0.00;-25.48
-8.06;-23.20;-1.63;-3.38;-4.03;-29.51
-13.72;-44.10;-1.63;-6.64;-10.45;-51.29
-18.51;-52.16;-1.63;-5.77;-10.45;-63.38
-13.72;-54.67;9.69;-1.74;-12.85;-54.56
-19.38;-48.13;-1.63;-10.67;-8.06;-66.65
-12.96;-53.80;-3.16;-9.80;0.00;-60.98
-21.02;-41.71;-5.66;16.01;-1.63;-24.72
-11.33;-25.59;-18.51;-3.38;4.03;-10.24
-0.87;-7.08;-1.63;1.42;4.03;21.24
11.22;16.23;2.40;6.32;4.03;35.72
12.85;28.31;-1.63;1.42;6.43;34.09
12.09;42.91;4.03;1.42;1.63;26.79
13.72;48.46;1.63;3.05;1.63;42.14
17.75;75.03;3.27;3.05;-7.19;34.85
15.25;48.46;16.99;3.05;-4.79;31.69
20.15;55.76;7.30;8.71;-7.19;5.88
18.51;38.01;6.43;-0.11;-8.82;10.67
3.16;28.31;0.87;3.05;-1.63;9.91
-21.78;5.01;0.00;-3.38;-8.06;-0.54
-10.45;-10.35;-1.63;-6.64;-6.43;-24.72
-7.30;-29.62;13.72;-3.38;3.27;-45.63
-16.99;-41.71;-1.63;-3.38;3.27;-45.63
-14.48;-49.77;19.38;-0.11;1.63;-44.87
-12.09;-51.40;-4.03;-4.14;5.66;-36.81
-11.33;-49.77;-2.40;-0.98;4.03;-35.17
-12.09;-57.06;-4.03;-6.64;4.03;-29.51
-12.09;-38.55;-3.16;10.35;-13.61;-17.42
-14.48;-20.80;-3.16;22.43;9.69;-3.81
-4.90;-8.71;-2.40;1.42;-4.79;-19.06
2.40;15.46;-1.63;-10.67;-4.03;14.70
3.16;19.49;-1.63;4.68;-4.79;24.39
17.75;21.89;4.03;-1.74;-6.43;38.88
22.54;52.49;-0.76;8.71;2.40;37.35
20.91;55.76;-5.66;6.32;0.00;38.11
20.15;54.12;10.45;2.29;-5.66;35.72
20.91;54.12;4.03;5.44;-8.06;26.79
14.48;42.04;4.03;2.29;-6.43;14.70
3.16;28.31;3.27;-0.11;-3.16;13.94
-1.63;5.01;-0.76;1.42;0.87;1.09
-4.90;-20.04;-2.40;-0.98;-4.03;-1.31
-1.63;-23.20;0.87;-1.74;-0.76;-6.21
-1.63;-46.61;-2.40;-2.61;3.27;-33.54
-17.75;-51.40;-5.66;-4.14;2.40;-48.13
-20.15;-59.46;-4.79;-4.14;3.27;-50.53
-18.51;-47.37;-4.79;11.98;-3.16;-58.59
-7.30;-25.59;-7.19;-2.61;3.27;-50.53
-22.54;-38.55;-5.66;-2.61;5.66;-36.05
-7.30;-24.83;-4.03;-0.11;16.12;1.09
0.76;-9.47;-4.03;-0.11;-0.76;21.24
5.66;13.07;-3.16;3.05;-8.06;29.29
12.85;25.92;-1.63;2.29;14.48;31.69
24.18;43.67;4.03;4.68;-12.85;51.84
24.94;54.99;3.27;7.95;2.40;45.41
15.25;56.52;6.43;6.32;3.27;52.60
19.28;46.06;6.43;5.44;2.40;40.51
16.88;53.36;5.66;3.05;-0.76;23.63
15.25;36.37;3.27;3.05;-6.43;12.31
11.22;62.18;0.87;-7.41;1.63;4.25
5.66;5.01;-1.63;-2.61;-3.16;-13.39
-5.66;-7.95;-1.63;-2.61;-1.63;-19.06
-11.33;-28.10;-4.03;-3.38;-7.19;-32.78
-21.02;-46.61;-1.63;-6.64;-10.45;-50.53
-21.78;-71.55;-6.43;-4.14;-3.16;-36.05
-17.75;-50.64;-5.66;-3.38;4.03;-33.54
-16.99;-49.77;-5.66;-2.61;3.27;-38.44
-12.09;-47.37;-0.76;-8.17;3.27;-30.38
-8.93;-37.68;12.09;-1.74;2.40;1.09
-1.63;-22.43;-23.30;3.92;4.90;-15.90
3.16;-5.44;-1.63;2.29;4.03;7.51
7.19;9.80;0.87;8.71;4.03;17.97
11.22;17.10;2.40;4.68;4.03;26.79
15.25;43.67;-0.76;4.68;4.90;48.57
17.75;56.52;4.03;8.71;32.23;60.66
17.75;58.15;7.30;7.95;4.03;50.20
16.12;50.97;3.27;-0.11;1.63;49.44
16.12;56.52;2.40;10.35;4.90;32.45
11.22;33.98;4.03;5.44;-4.03;19.60
6.43;25.92;2.40;-1.74;-8.82;-11.87
-5.66;5.01;2.40;30.49;-11.22;-30.38
-1.63;-10.35;-8.82;-0.11;-10.45;-33.54
-1.63;-21.56;-2.40;-4.14;-4.03;-48.90
-15.35;-59.46;-1.63;-9.80;-6.43;-52.16
-31.47;-46.61;-5.66;-3.38;-1.63;-34.41
-35.50;-75.58;-4.79;-41.27;3.27;-32.02
-14.48;-51.40;-13.72;-6.64;3.27;-24.72
-8.06;-46.61;-8.82;-3.38;3.27;-24.72
-10.45;-35.28;-1.63;-0.11;4.90;-14.27
12.09;-18.40;-15.25;2.29;8.06;1.09
-0.87;-7.95;-4.03;2.29;-1.63;26.03
1.63;24.28;-1.63;32.13;4.03;13.94
3.16;15.46;0.00;3.05;-0.76;19.60
14.48;38.01;7.30;1.42;1.63;42.14
15.25;48.46;-10.45;1.42;-7.19;38.88
16.12;51.73;2.40;4.68;2.40;40.51
16.12;53.36;3.27;-0.98;0.00;39.75
15.25;43.67;4.03;4.68;0.00;43.78
8.82;33.98;3.27;-3.38;-8.06;26.79
5.66;25.16;-1.63;-2.61;-8.82;-1.31
15.25;5.77;1.63;-1.74;-7.19;-12.63
-2.40;-7.95;0.87;-15.46;-11.22;-24.72
-4.03;-21.56;-0.76;-3.38;-8.82;-35.17
-12.09;-36.92;-1.63;-10.67;-8.82;-49.66
-20.15;-51.40;-2.40;-1.74;1.63;-75.47
-16.99;-53.80;-4.79;-1.74;0.87;-50.53
-14.48;-48.13;-30.60;-2.61;0.87;-43.23
-22.54;-48.13;-5.66;-2.61;8.06;-16.66
7.19;-41.71;-4.79;-7.41;11.33;2.72
-1.63;-32.02;-0.76;3.92;8.06;14.70
3.16;-7.08;-3.16;-0.11;-1.63;21.24
7.19;-9.47;-1.63;-2.61;1.63;17.97
11.22;17.10;-1.63;2.29;6.43;26.03
18.51;39.64;1.63;9.47;3.27;29.29
16.88;48.46;0.00;1.42;-4.79;25.26
28.21;56.52;3.27;3.05;-16.12;24.39
12.09;54.12;0.87;-0.11;-4.79;17.97
14.48;48.46;2.40;-0.11;-27.33;12.31
5.66;22.76;4.03;-0.98;-8.06;6.64
8.06;21.13;0.87;-0.11;-12.85;24.39
2.40;5.77;2.40;-0.11;-4.79;-11.00
2.40;-7.95;-0.76;11.11;-5.66;-11.87
3.16;-19.17;-0.76;-29.19;-5.66;-19.06
