-1.20;-9.26;-0.54;0.11;4.79;-5.12
9.26;-7.73;-0.54;1.74;4.79;2.07
-1.96;-7.73;0.22;-0.65;4.79;7.73
-1.20;-6.10;-0.54;3.38;-6.53;9.37
-0.33;2.72;-0.54;2.50;3.92;14.16
1.20;-1.31;-2.94;3.38;0.76;19.82
0.44;5.99;1.85;4.14;-0.11;25.48
-3.59;-2.83;1.09;5.77;-2.50;18.95
3.70;6.75;5.12;0.87;-21.02;9.37
3.70;5.99;-0.54;-1.52;-8.93;1.31
2.83;6.75;1.85;-3.92;-4.14;11.00
4.46;6.75;-0.54;-0.65;14.48;9.37
-24.50;-19.82;-0.54;0.87;-2.50;2.07
2.83;4.36;0.22;-0.65;-19.38;-10.02
-4.36;4.36;-0.54;20.26;14.48;-18.08
-3.59;-5.34;15.57;-1.52;0.76;-28.53
-3.59;-2.07;1.09;-0.65;4.79;-34.96
-22.98;-4.46;1.09;-3.16;4.79;-35.83
-1.20;-4.46;-1.31;-1.52;17.64;-27.77
0.44;-7.73;-0.54;11.33;3.92;2.94
-1.20;-7.73;-1.31;-2.29;-4.14;0.44
-0.33;-7.73;-1.31;3.38;-14.59;14.16
-1.96;-2.83;-0.54;1.74;0.76;15.79
-1.96;-2.07;0.22;0.87;2.40;1.31
4.46;-4.46;26.90;3.38;3.92;25.48
2.83;5.23;1.09;-3.16;3.16;-9.15
3.70;5.99;1.85;2.50;2.40;10.13
17.32;-18.19;2.72;-28.10;2.40;10.13
6.10;5.99;1.85;14.59;-4.14;8.49
2.07;9.26;-0.54;2.50;-2.50;26.24
3.70;5.99;1.85;-0.65;-3.27;2.07
6.10;5.99;3.48;-0.65;-2.50;-6.75
3.70;51.95;0.22;32.34;-22.65;0.44
-18.95;-22.22;0.22;25.05;-2.50;-10.78
3.70;1.96;4.25;4.14;-2.50;-19.71
1.20;5.99;0.22;-21.67;0.76;-15.68
2.83;-4.46;-1.31;4.14;35.39;-8.39
-0.33;-5.34;-0.54;-2.29;3.92;-1.96
2.07;1.20;0.22;-2.29;3.92;-6.75
3.70;-7.73;-0.54;2.50;20.04;-8.39
3.70;-11.76;-2.18;-1.52;2.40;2.07
2.83;0.33;-0.54;-8.71;0.76;3.70
3.70;5.99;-4.57;0.11;-0.11;12.52
-1.20;-6.86;-0.54;0.87;-0.11;16.55
-1.20;-2.07;-1.31;7.30;-7.30;10.13
2.83;-1.31;1.85;0.11;-4.90;4.46
4.46;3.59;-0.54;0.87;-3.27;7.73
3.70;14.81;1.09;6.53;-4.14;11.00
3.70;5.99;8.28;7.30;0.76;10.13
11.76;5.99;1.85;8.93;3.16;2.07
7.73;10.02;-0.54;4.14;2.40;2.07
12.52;3.59;-4.57;3.38;0.76;2.94
6.10;5.99;1.09;7.30;-2.50;-3.59
3.70;5.23;-0.54;-1.52;-1.63;-11.65
1.20;-19.82;3.48;29.08;3.16;-9.15
-1.20;-5.34;0.22;-2.29;2.40;-10.78
2.83;-1.31;-0.54;-2.29;7.19;-12.41
-1.96;-2.83;11.54;-0.65;4.79;-11.65
-4.36;-19.82;-1.31;-2.29;4.79;-10.78
-3.59;-7.73;-0.54;-3.16;3.92;-2.72
-3.59;-5.34;-0.54;0.11;2.40;3.70
2.83;-5.34;-1.31;3.38;3.92;6.97
-3.59;-1.31;-0.54;16.99;9.58;14.92
-8.39;-6.86;-0.54;0.11;2.40;9.37
2.07;1.20;0.22;2.50;0.76;-0.33
-0.33;4.36;-0.54;-1.52;-8.93;-5.99
-3.59;5.99;-0.54;0.87;0.76;7.73
1.20;10.78;-0.54;-1.52;-10.56;10.13
2.07;10.02;5.12;5.77;1.52;15.79
8.49;6.75;4.25;7.30;4.79;2.07
4.46;6.75;5.12;10.56;0.76;-27.77
8.49;10.78;2.72;-2.29;3.16;0.44
3.70;5.99;6.75;0.87;3.92;4.46
2.83;4.36;3.48;-0.65;-0.87;-8.39
-1.20;-2.83;-17.42;-1.52;-4.14;-11.65
-0.33;-2.07;-1.31;-2.29;-7.30;-11.65
-1.96;-1.31;-0.54;-1.52;7.19;-10.78
0.44;-10.89;-0.54;4.14;-8.93;-11.65
-0.33;-5.34;12.31;-0.65;3.16;-6.75
-0.33;-9.26;-0.54;-1.52;3.16;-10.02
-5.23;-6.86;-0.54;-0.65;30.60;-1.96
6.10;-2.83;-2.94;-16.01;6.43;7.73
-0.33;-9.26;12.31;8.17;6.43;2.07
3.70;-5.34;-1.31;2.50;4.79;16.55
12.52;-6.86;-0.54;4.14;4.79;15.79
-0.33;-16.55;1.09;-4.68;0.76;17.42
2.83;5.23;0.22;-2.29;4.79;25.48
3.70;10.02;0.22;0.87;-0.87;20.58
6.86;6.75;1.09;14.59;4.79;13.39
3.70;6.75;1.85;3.38;-7.30;1.31
12.52;14.05;1.09;4.14;-8.17;-1.96
-13.29;11.65;1.85;-0.65;-6.53;-21.24
6.10;5.99;3.48;-6.32;-7.30;-26.14
2.83;5.99;1.85;0.87;-0.87;-14.81
-0.33;3.59;0.22;0.87;-2.50;-1.96
-0.33;-1.31;-0.54;-1.52;0.76;-10.78
-4.36;-2.83;-0.54;-2.29;4.79;-8.39
-8.39;-11.76;-5.34;-3.16;18.51;-5.12
-5.23;-6.10;-4.57;-1.52;4.79;-10.02
25.37;-8.49;-1.31;-1.52;3.92;-14.05
-6.86;-10.13;-3.81;-1.52;4.79;-18.08
-1.96;-7.73;-1.31;0.11;4.79;-13.18
-0.33;-5.34;-2.18;0.11;1.52;9.37
-3.59;-4.46;-1.31;3.38;4.79;17.42
-0.33;-5.34;-0.54;2.50;-2.50;16.55
-1.20;-2.07;0.22;4.14;4.79;14.16
6.10;-2.07;0.22;0.87;2.40;20.58
0.44;-14.92;1.85;24.28;4.79;15.79
3.70;-6.86;1.85;-3.16;2.40;15.79
4.46;30.17;3.48;19.38;-12.96;7.73
3.70;10.02;7.51;-0.65;-6.53;-9.15
3.70;5.99;-1.31;0.87;-4.90;0.44
3.70;8.39;1.85;0.87;-0.87;2.07
3.70;1.20;9.15;-0.65;3.92;2.07
3.70;0.33;3.48;3.38;2.40;-14.81
-10.02;-31.04;1.09;9.80;4.79;-12.41
-8.39;-2.83;-2.94;0.11;-4.90;-10.02
-3.59;-6.10;-2.94;5.77;-0.87;-7.62
-39.86;-11.76;-0.54;-3.16;-4.90;-8.39
-5.23;-10.89;-0.54;-3.16;-3.27;-8.39
6.10;-6.86;-5.34;-7.95;-0.87;-1.09
-1.96;-6.10;-0.54;-2.29;29.73;2.07
-0.33;5.99;-0.54;-0.65;-0.87;1.31
2.07;-6.86;-1.31;1.74;-0.11;1.31
-1.20;3.59;-0.54;11.33;-4.14;18.19
-0.33;1.20;0.22;-14.37;-8.93;7.73
3.70;5.23;-0.54;2.50;-3.27;14.16
27.88;5.99;-0.54;0.87;-0.11;9.37
4.46;8.39;3.48;-1.52;0.76;19.82
2.83;5.99;0.22;3.38;-0.87;2.07
-1.20;10.02;22.87;-1.52;-0.11;-1.96
-14.05;7.62;3.48;25.92;-0.11;-5.12
2.83;4.36;-21.45;-1.52;4.79;-6.75
3.70;4.36;1.85;-1.52;3.92;-14.81
1.20;-2.83;-0.54;-2.29;16.88;-6.75
4.46;-2.07;-0.54;4.14;7.19;-30.93
2.83;-2.07;-0.54;1.74;9.58;-8.39
-1.96;-6.86;-0.54;-3.16;9.58;-8.39
-5.23;-6.10;-0.54;-1.52;3.16;-10.78
-6.86;-11.76;-9.37;-1.52;7.19;-22.11
-9.26;-7.73;13.18;3.38;7.19;2.07
-4.36;-6.86;-0.54;-1.52;4.79;7.73
2.83;-6.86;-2.18;-0.65;-7.30;-34.19
-4.36;-30.27;-0.54;-0.65;-16.99;-3.59
3.70;-2.83;-0.54;-2.29;-5.66;11.76
3.70;-2.07;-0.54;4.14;-29.84;16.55
38.33;1.20;0.22;2.50;-6.53;15.79
3.70;5.99;5.12;-1.52;-2.50;-0.33
-0.33;5.99;1.85;23.41;-0.11;-4.36
4.46;5.99;3.48;1.74;0.76;2.94
6.86;5.99;1.85;0.87;3.16;15.79
2.07;8.39;1.85;0.87;0.76;12.52
22.22;5.23;0.22;-3.92;-3.27;3.70
2.07;0.33;7.51;2.50;-4.90;-0.33
-8.39;-1.31;1.85;0.87;2.40;-14.05
3.70;-1.31;-2.18;-1.52;13.61;-26.14
-1.96;-1.31;1.85;-2.29;-0.87;-31.80
-4.36;-6.86;9.15;7.30;3.16;-21.24
-4.36;-6.86;-4.57;-3.92;3.16;-8.39
-3.59;-4.46;-2.94;3.38;3.92;1.31
-3.59;-6.86;-1.31;-3.92;3.92;9.37
-6.86;17.32;-0.54;2.50;5.55;13.39
-1.96;-3.70;-1.31;0.87;4.79;6.97
2.83;-2.07;13.18;3.38;3.92;13.39
-6.86;-2.07;8.28;1.74;4.79;14.92
-1.20;1.96;0.22;0.87;-2.50;20.58
3.70;6.75;1.85;0.87;3.92;-5.99
-8.39;6.75;3.48;1.74;-9.69;11.00
3.70;9.26;3.48;0.11;1.52;9.37
3.70;8.39;3.48;-14.37;-0.87;4.46
-1.20;9.26;4.25;0.87;-2.50;1.31
1.20;5.23;-0.54;0.87;-8.93;-14.81
4.46;5.23;1.09;-0.65;3.16;-23.74
8.49;1.20;-0.54;5.77;3.92;-10.78
17.32;-9.26;1.85;3.38;2.40;-10.02
8.49;0.33;1.09;0.11;0.76;-11.65
7.73;1.20;-0.54;-21.67;2.40;-20.47
0.44;-2.07;-2.18;0.87;4.79;-10.78
-25.37;24.50;-2.94;-1.52;3.16;-9.15
-0.33;-6.86;-23.96;0.11;3.92;1.31
-3.59;-9.26;-0.54;0.11;17.64;-5.12
-0.33;-14.16;-4.57;0.11;2.40;-5.12
-1.20;-7.73;-1.31;0.87;-0.11;0.44
-0.33;-4.46;0.22;-0.65;3.16;10.13
-3.59;5.99;-0.54;-0.65;0.76;20.58
-1.96;5.23;1.85;-2.29;-6.53;9.37
2.07;5.99;1.09;-5.55;-5.66;17.42
1.20;1.20;12.31;-1.52;-0.87;14.16
9.26;19.71;-0.54;-1.52;4.79;14.92
3.70;5.99;5.12;5.77;5.55;13.39
2.83;2.72;-0.54;4.14;11.22;2.94
-0.33;4.36;1.85;6.53;3.92;1.31
3.70;5.99;3.48;4.14;-7.30;-12.41
0.44;0.33;1.85;-9.58;-2.50;-12.41
0.44;21.34;1.09;1.74;4.79;-10.78
-5.23;-6.86;3.48;-1.52;0.76;-18.08
-4.36;19.71;-0.54;-1.52;0.76;-16.44
-6.86;-1.31;-0.54;-1.52;20.91;-6.75
6.10;-2.83;-0.54;-14.37;-5.66;-3.59
-5.23;-7.73;-2.18;-16.01;-2.50;-5.12
-6.86;-7.73;-3.81;0.87;0.76;-1.96
0.44;-6.10;0.22;-1.52;-2.50;2.07
2.07;34.19;-2.18;0.87;-0.11;11.00
3.70;-2.07;-2.94;0.11;3.16;18.95
8.49;-2.07;0.22;7.30;-8.93;1.31
3.70;0.33;-0.54;-24.07;-12.20;2.07
6.10;4.36;0.22;0.11;-4.14;12.52
9.26;7.62;5.12;0.11;-4.14;2.07
6.10;6.75;30.06;-0.65;-0.11;14.16
12.52;11.65;3.48;2.50;-0.11;6.97
3.70;8.39;4.25;22.65;3.92;7.73
-0.33;6.75;1.09;31.47;2.40;4.46
3.70;7.62;27.66;2.50;4.79;2.94
-0.33;8.39;-0.54;0.11;6.43;0.44
3.70;1.96;1.09;-0.65;-0.87;-9.15
-2.83;-2.83;4.25;-2.29;2.40;-12.41
-2.83;-6.10;-0.54;0.11;3.92;-18.08
-0.33;-5.34;-1.31;25.05;15.25;-0.33
2.83;-10.89;-2.94;4.14;4.79;-6.75
14.92;-5.34;-2.94;0.87;13.61;2.07
-3.59;-7.73;-5.34;-1.52;3.92;18.95
-7.62;-6.86;-6.21;0.11;0.76;27.88
1.20;-4.46;-2.94;0.87;-0.11;18.95
-1.20;-1.31;-1.31;-3.16;2.40;15.79
-0.33;-4.46;-0.54;3.38;3.92;11.00
9.26;1.96;-0.54;-28.10;3.92;2.94
-0.33;1.96;1.09;1.74;-0.11;-5.99
2.07;5.23;13.18;5.77;3.92;-15.68
2.83;4.36;1.09;-1.52;6.43;-6.75
-0.33;11.65;-0.54;-8.71;-2.50;2.07
5.23;5.99;0.22;4.14;2.40;-1.96
27.88;5.99;3.48;5.77;3.16;-5.12
3.70;4.36;-15.03;-1.52;-0.11;2.07
-8.39;20.47;1.85;2.50;-2.50;-5.12
16.55;-1.31;-0.54;-0.65;-8.17;-34.96
-4.36;-7.73;1.85;-7.19;-4.14;-12.41
-0.33;-4.46;0.22;-3.92;-4.14;-1.96
2.07;-6.86;-0.54;-10.35;-0.87;-9.15
1.20;-10.13;-0.54;-3.92;-0.11;0.44
-1.96;-9.26;-0.54;-2.29;2.40;-1.09
3.70;-6.86;-4.57;0.11;6.43;-1.96
6.10;-6.10;-1.31;-2.29;4.79;6.97
1.20;-8.49;-0.54;0.11;2.40;13.39
-3.59;-6.10;-0.54;-2.29;12.85;16.55
-0.33;1.96;-2.18;33.11;4.79;25.48
3.70;5.23;-0.54;-1.52;-0.87;16.55
1.20;5.99;1.09;0.87;3.92;31.91
3.70;3.59;1.09;0.87;4.79;24.61
3.70;5.99;3.48;0.87;-0.87;11.00
4.46;5.99;-4.57;3.38;0.76;-24.50
3.70;10.02;3.48;-16.77;-2.50;-1.96
2.07;5.99;1.09;-1.52;-3.27;-2.72
-1.20;1.20;0.22;4.14;-10.56;-12.41
-3.59;5.99;-0.54;3.38;3.16;-12.41
1.20;3.59;0.22;-11.22;0.76;-19.71
3.70;0.33;0.22;-2.29;-0.11;-22.11
-1.96;0.33;-0.54;-1.52;4.79;-10.78
0.44;-9.26;-0.54;0.87;1.52;-9.15
4.46;-2.83;-0.54;3.38;4.79;2.07
2.83;-6.10;-0.54;-3.92;-4.14;-5.99
-8.39;-9.26;-2.94;-0.65;-9.69;-6.75
-10.89;-11.76;-1.31;-3.16;-2.50;-3.59
-19.71;-8.49;-2.18;-34.52;2.40;2.07
-6.86;-0.44;-9.37;1.74;2.40;9.37
6.10;-2.07;-3.81;11.33;-3.27;13.39
0.44;-1.31;-0.54;-3.16;-6.53;12.52
2.83;5.23;1.85;-8.71;-6.53;6.97
3.70;10.78;-24.72;-1.52;-1.63;9.37
3.70;8.39;3.48;1.74;-3.27;6.10
3.70;5.99;4.25;-0.65;-2.50;22.22
3.70;6.75;3.48;-0.65;3.92;-2.72
3.70;5.99;-0.54;-7.95;-2.50;-31.80
-8.39;5.23;3.48;1.74;21.67;-10.02
18.95;7.62;-0.54;-11.98;2.40;-16.44
-1.20;-1.31;1.09;6.53;-0.87;-18.08
2.07;0.33;-0.54;-5.55;1.52;-10.02
-3.59;-4.46;-0.54;-11.98;2.40;-10.02
-1.20;-7.73;-0.54;-0.65;8.82;-3.59
-4.36;-7.73;-1.31;-0.65;19.28;2.94
-1.96;-6.10;-2.94;8.17;7.95;7.73
-5.23;-14.16;13.18;-0.65;2.40;10.13
-11.65;-10.89;-2.18;0.87;-0.11;10.13
2.07;-6.86;-1.31;3.38;-8.17;-10.78
-5.23;-5.34;0.22;1.74;-6.53;6.10
-1.96;-1.31;0.22;0.87;3.16;19.82
3.70;3.59;-0.54;9.80;4.79;-2.72
29.40;5.99;-0.54;0.87;5.55;11.00
6.10;3.59;4.25;0.87;7.19;2.07
10.89;5.99;8.28;4.14;-0.87;-11.65
16.55;17.32;-0.54;3.38;-2.50;3.70
18.19;5.23;2.72;6.53;-2.50;-6.75
3.70;7.62;3.48;0.87;-9.69;-12.41
3.70;5.99;-0.54;0.87;-2.50;-22.11
2.83;3.59;0.22;-2.29;2.40;-9.15
2.83;-4.46;-1.31;-2.29;3.16;-40.62
2.83;4.36;-1.31;24.28;2.40;-10.78
2.07;1.96;-1.31;-1.52;3.92;-10.02
-4.36;-4.46;-0.54;2.50;-0.11;3.70
3.70;-6.86;-0.54;2.50;10.45;-4.36
2.83;-9.26;-1.31;0.87;2.40;-8.39
1.20;-27.88;0.22;-1.52;0.76;-2.72
-0.33;-6.86;-5.34;-0.65;-0.11;3.70
3.70;-2.83;-2.18;-4.68;3.92;36.70
11.76;-2.83;-19.93;-1.52;-0.87;12.52
3.70;-1.31;-1.31;-1.52;-4.14;18.95
4.46;1.96;0.22;-0.65;3.16;22.22
9.26;-2.07;0.22;27.44;30.60;11.76
3.70;2.72;1.09;1.74;4.79;14.16
4.46;10.02;4.25;2.50;3.92;18.95
5.23;10.02;3.48;-2.29;4.79;6.97
2.83;5.99;5.12;1.74;2.40;4.46
-1.20;8.39;-0.54;2.50;-3.27;-2.72
-7.62;2.72;-0.54;0.87;-6.53;7.73
-8.39;5.99;-0.54;16.99;-4.90;-1.96
-17.32;-2.83;1.85;0.87;13.61;-14.81
-14.05;-4.46;-0.54;-2.29;-20.26;-24.50
1.20;-6.86;-1.31;0.87;2.40;-37.35
27.88;-6.10;0.22;2.50;4.79;-15.68
15.79;-2.07;1.09;0.87;5.55;-5.99
-25.37;-9.26;-1.31;0.87;4.79;2.07
-3.59;-12.52;-0.54;20.26;6.43;5.34
-6.86;-7.73;-1.31;-12.74;5.55;2.07
-10.02;-6.86;-1.31;-2.29;-21.02;6.97
-1.96;-6.86;-2.18;-3.16;3.92;9.37
3.70;2.72;-0.54;-8.71;-0.11;6.10
-0.33;0.33;0.22;-1.52;-3.27;2.07
-1.20;6.75;8.28;2.50;-4.90;-10.78
-17.32;10.78;1.85;0.87;4.79;15.79
-6.86;7.62;-2.94;3.38;-0.11;17.42
-7.62;14.81;3.48;-14.37;3.92;6.97
2.83;5.99;3.48;-1.52;-5.66;-14.81
6.86;5.23;0.22;5.77;-3.27;-11.65
3.70;-7.73;0.22;-0.65;0.76;-5.99
-0.33;3.59;-0.54;4.14;2.40;1.31
-1.20;1.20;4.25;-1.52;-0.87;-12.41
-0.33;-20.58;0.22;-0.65;5.55;-5.99
-3.59;-18.95;-0.54;-1.52;1.52;-8.39
-3.59;-2.83;-21.45;-1.52;-2.50;-6.75
-1.96;-6.86;-7.84;0.11;-0.11;-9.15
-5.23;-8.49;-0.54;-1.52;0.76;-13.18
-5.23;-6.86;-0.54;5.77;-0.11;-5.99
-5.23;-5.34;-0.54;7.30;3.16;-0.33
-4.36;1.20;-0.54;12.20;-2.50;14.92
-5.23;1.96;-0.54;-1.52;3.92;14.16
-1.20;-8.49;0.22;2.50;-15.35;7.73
-0.33;1.96;1.09;4.14;-0.11;11.00
-5.99;6.75;1.85;-0.65;2.40;12.52
3.70;1.96;-0.54;15.35;0.76;2.07
2.83;6.75;-0.54;6.53;-3.27;4.46
-22.98;1.96;2.72;-2.29;-7.30;6.10
3.70;1.20;1.09;3.38;-6.53;-5.12
-0.33;5.99;0.22;-1.52;-8.17;-23.74
1.20;5.99;1.85;-0.65;-6.53;5.34
4.46;-1.31;1.09;-1.52;1.52;-10.02
4.46;4.36;1.85;0.11;0.76;-10.78
38.33;-2.07;-2.18;-6.32;3.92;-13.18
3.70;-1.31;0.22;-19.28;4.79;-6.75
8.49;-2.83;-2.94;-0.65;10.45;-5.99
-0.33;-6.86;-0.54;-3.16;0.76;-6.75
-6.86;-2.07;-0.54;-3.92;4.79;0.44
-5.23;-9.26;-7.84;-0.65;4.79;2.07
-9.26;-9.26;-3.81;-1.52;8.82;14.16
-5.23;-7.73;-0.54;-2.29;5.55;12.52
-7.62;-6.86;-21.45;-1.52;3.16;32.67
2.83;-4.46;-2.18;0.11;-0.11;14.16
7.73;1.20;0.22;2.50;5.55;14.16
3.70;7.62;-0.54;3.38;-5.66;9.37
4.46;5.99;1.85;3.38;-8.17;-10.02
3.70;5.99;-0.54;0.87;-10.56;-28.53
5.23;4.36;4.25;-3.16;-8.93;-10.02
2.07;5.99;0.22;3.38;-0.87;-3.59
-0.33;18.08;1.85;5.77;-2.50;-1.09
-8.39;5.99;-0.54;4.14;3.92;-7.62
-13.29;5.99;-2.94;-1.52;3.16;-27.77
-10.89;-3.70;-0.54;3.38;4.79;-10.02
-12.41;-4.46;-1.31;3.38;3.92;-0.33
-7.62;-25.37;-0.54;0.11;3.16;2.07
-35.07;-10.89;-2.18;0.87;-0.11;-5.12
-8.39;-4.46;-4.57;-0.65;-6.53;-12.41
-0.33;-8.49;-4.57;-9.58;-0.11;-8.39
-3.59;-5.34;-1.31;0.11;-0.11;-0.33
-16.44;-8.49;-21.45;-2.29;3.92;1.31
-24.50;-11.76;-0.54;-0.65;3.92;-3.59
-17.32;14.81;-1.31;-3.16;3.16;10.13
-13.29;0.33;-0.54;4.14;1.52;9.37
-16.44;5.23;-0.54;20.26;3.92;9.37
-19.71;5.23;-23.96;-1.52;1.52;22.98
10.89;1.96;3.48;0.87;-0.11;6.10
14.92;32.56;0.22;-29.73;-2.50;14.16
7.73;5.99;-22.32;3.38;-0.87;9.37
4.46;10.02;17.21;0.11;3.92;2.07
-1.20;4.36;5.88;-1.52;0.76;2.07
-4.36;3.59;3.48;3.38;2.40;1.31
-1.96;1.20;-0.54;-0.65;-0.11;-5.12
12.52;1.20;-0.54;-5.55;-0.11;-10.02
-16.44;-4.46;-0.54;2.50;4.79;-18.84
-0.33;-6.86;-0.54;6.53;4.79;-21.24
-6.86;-19.82;-0.54;4.14;3.16;-16.44
-35.07;-10.89;-0.54;2.50;0.76;-14.81
-10.02;-8.49;-2.18;7.30;5.55;7.73
-11.65;-8.49;-3.81;23.41;3.92;14.92
-10.02;-10.89;13.94;3.38;-2.50;17.42
-5.23;26.90;-0.54;-12.74;-8.93;6.97
2.07;5.99;-2.18;2.50;-5.66;14.92
9.26;5.99;-0.54;-2.29;-3.27;2.94
-18.08;5.23;1.09;-0.65;2.40;-8.39
8.49;5.99;0.22;0.87;2.40;-31.80
9.26;5.99;1.85;4.14;-5.66;-10.02
-6.86;10.02;-0.54;11.33;-0.11;-5.12
-21.34;5.99;0.22;8.93;0.76;1.31
5.23;8.39;-4.57;0.11;4.79;-8.39
3.70;-6.10;2.72;-2.29;0.76;2.07
2.83;30.93;4.25;-3.16;4.79;-5.12
3.70;5.99;4.25;6.53;3.92;-10.78
-0.33;4.36;5.12;0.11;9.58;-13.18
3.70;-6.86;-3.81;0.87;3.92;-9.15
5.23;-4.46;0.22;4.14;4.79;-3.59
-0.33;14.05;-1.31;-0.65;4.79;2.07
3.70;-8.49;-1.31;-5.55;4.79;3.70
11.76;-10.89;-1.31;11.33;-5.66;7.73
18.19;-7.73;-1.31;-2.29;-10.56;2.94
42.36;-10.89;-1.31;-0.65;-4.14;10.13
2.07;-7.73;-3.81;-11.98;-2.50;13.39
-42.25;-1.31;-1.31;-3.16;-4.14;2.94
-35.07;2.72;0.22;-3.92;2.40;-0.33
-30.17;5.23;-0.54;0.87;-2.50;-5.12
-22.11;-22.22;0.22;-0.65;-0.11;-9.15
-9.26;5.99;-0.54;5.77;-2.50;-1.09
9.26;8.39;1.09;-0.65;-3.27;12.52
23.85;10.78;3.48;-1.52;-4.90;6.97
23.85;6.75;3.48;0.87;0.76;4.46
16.55;8.39;5.12;0.11;-0.11;-5.12
14.16;5.23;1.85;0.87;-0.11;-10.02
-18.95;6.75;1.85;-11.98;4.79;-11.65
4.46;0.33;1.85;0.87;3.16;-5.99
3.70;0.33;-0.54;-2.29;4.79;-3.59
2.07;-6.10;-1.31;0.87;3.16;1.31
-22.98;-3.70;-2.18;-2.29;4.79;-0.33
-0.33;-7.73;-2.18;-2.29;3.16;-10.78
-3.59;-6.10;-0.54;-2.29;4.79;-0.33
-5.99;-9.26;-2.18;-1.52;-16.99;5.34
-3.59;-9.26;-0.54;2.50;11.98;14.16
-22.11;-6.86;-1.31;0.87;3.92;2.07
29.40;-2.83;-2.18;-2.29;-5.66;14.16
-4.36;-19.82;-3.81;-1.52;-4.14;3.70
2.07;9.26;1.09;-24.07;-6.53;10.13
2.83;6.75;0.22;-2.29;-6.53;12.52
3.70;5.23;0.22;2.50;-3.27;20.58
3.70;6.75;7.51;4.14;-3.27;27.88
10.13;8.39;1.09;-0.65;-5.66;4.46
3.70;5.99;1.85;3.38;3.92;-1.96
3.70;5.99;1.09;-0.65;2.40;1.31
3.70;5.99;2.72;-28.10;-3.27;-5.12
2.07;1.96;1.09;-25.70;-2.50;-10.02
-0.33;24.50;0.22;0.87;0.76;-11.65
1.20;1.96;-8.60;-5.55;3.16;-13.18
-1.20;21.34;-0.54;-3.16;-0.11;-9.15
-0.33;-3.70;-0.54;-3.16;0.76;-8.39
-4.36;-1.31;-2.18;6.53;5.55;-1.09
-3.59;-6.86;-0.54;0.87;2.40;22.22
-8.39;-9.26;-2.18;0.87;3.16;1.31
-1.96;-1.31;-2.94;-11.22;4.79;7.73
-5.23;-5.34;-0.54;3.38;4.79;9.37
0.44;-4.46;-2.94;-2.29;3.16;18.95
2.07;1.96;1.09;-0.65;0.76;19.82
3.70;5.99;-0.54;4.14;1.52;22.22
-0.33;6.75;0.22;3.38;-0.11;20.58
3.70;4.36;2.72;2.50;2.40;2.07
2.83;10.02;1.85;0.87;4.79;4.46
3.70;-9.26;3.48;-1.52;3.92;-1.96
3.70;5.23;1.85;0.11;3.92;12.52
3.70;5.99;1.85;1.74;1.52;-5.99
1.20;1.20;1.85;-0.65;-4.14;-13.18
1.20;1.96;-0.54;-4.68;-4.14;-21.24
1.20;0.33;0.22;-2.29;-5.66;-14.81
-5.23;-2.83;-0.54;-2.29;-5.66;-12.41
-0.33;10.78;-0.54;0.11;-3.27;-10.02
-9.26;6.75;-0.54;9.80;-4.90;-10.78
3.70;-5.34;-1.31;-3.16;-0.87;-3.59
6.10;-2.83;1.09;-1.52;3.92;6.10
3.70;-6.86;-7.84;-3.16;3.16;6.10
-3.59;-11.76;-4.57;-1.52;11.98;-0.33
2.07;-6.10;-5.34;4.14;3.92;3.70
11.76;-6.10;-1.31;-0.65;4.79;-2.72
36.70;-1.31;-0.54;-26.46;1.52;12.52
1.20;4.36;-1.31;-26.46;-2.50;39.10
3.70;5.99;-0.54;2.50;3.16;27.01
2.83;6.75;-7.84;2.50;4.79;45.63
3.70;26.90;2.72;21.89;-10.56;28.64
14.16;7.62;4.25;-5.55;3.92;17.42
10.89;5.99;1.85;5.77;4.79;-1.96
7.73;7.62;2.72;4.14;3.16;-1.96
3.70;5.23;0.22;-22.43;3.16;-35.83
-7.62;1.20;0.22;-0.65;-4.14;-38.99
-5.23;5.23;3.48;-16.01;-5.66;-32.56
-22.11;-1.31;1.09;-1.52;-13.72;-31.80
-1.20;-6.86;-0.54;0.11;-5.66;-13.18
-5.23;-5.34;-0.54;0.87;-0.11;-3.59
-3.59;-8.49;-21.45;-3.92;1.52;-1.96
2.83;-8.49;-2.18;-1.52;0.76;-10.02
3.70;-7.73;-0.54;-1.52;1.52;3.70
22.22;-4.46;-1.31;7.30;3.92;6.10
-0.33;-2.83;-0.54;-0.65;7.19;15.79
-33.43;-27.88;-0.54;2.50;1.52;18.95
-5.23;4.36;-26.35;2.50;1.52;16.55
-8.39;-4.46;-0.54;6.53;4.79;14.16
-10.89;4.36;1.85;8.93;3.92;15.79
-3.59;-1.31;1.85;3.38;-3.27;-10.02
-0.33;10.02;4.25;2.50;0.76;-14.81
6.10;3.59;4.25;1.74;-0.87;4.46
5.23;6.75;3.48;-10.35;-7.30;-5.12
11.76;4.36;1.09;-1.52;-17.75;-6.75
7.73;5.99;5.88;-1.52;-12.20;12.52
2.83;4.36;0.22;0.11;-8.17;17.42
2.83;3.59;-0.54;-2.29;-2.50;-2.72
2.07;0.33;-0.54;5.77;2.40;-12.41
-4.36;-6.86;-2.18;-1.52;4.79;-19.71
-1.20;-4.46;-0.54;-25.70;6.43;-20.47
-1.20;-7.73;-3.81;1.74;4.79;-14.81
-3.59;-6.86;-1.31;-14.37;4.79;-5.12
-6.86;23.74;-0.54;-2.29;3.92;2.07
-4.36;0.33;-0.54;4.14;4.79;7.73
-1.20;-6.86;12.31;3.38;4.79;6.97
2.07;-2.83;-0.54;-1.52;0.76;15.79
-0.33;1.96;-0.54;-0.65;-0.11;15.79
1.20;5.23;11.54;3.38;0.76;16.55
-0.33;-27.88;-0.54;4.14;-4.14;11.00
3.70;5.99;1.09;1.74;-3.27;2.07
3.70;8.39;5.12;-1.52;-1.63;20.58
3.70;5.99;-2.94;-1.52;-3.27;14.16
6.10;11.65;3.48;4.14;-4.14;5.34
6.10;5.99;-9.37;0.87;-4.90;-1.96
1.20;5.99;3.48;-2.29;-15.35;-7.62
2.07;6.75;0.22;0.87;-6.53;-13.18
-3.59;1.20;-1.31;-3.92;2.40;-13.18
-2.83;-24.61;-2.18;-1.52;4.79;-5.99
-1.96;-2.83;-0.54;28.31;3.92;-6.75
0.44;-5.34;-2.94;-2.29;2.40;-5.99
-0.33;-19.82;-0.54;-1.52;4.79;-0.33
-0.33;-10.89;-2.18;3.38;2.40;7.73
-6.86;-10.89;-0.54;-2.29;1.52;11.76
-4.36;-2.83;-0.54;1.74;-2.50;-2.72
-5.99;-2.83;-0.54;-1.52;-9.69;-10.78
-8.39;-2.83;12.31;2.50;-6.53;18.19
-6.86;-1.31;1.09;-0.65;1.52;6.10
3.70;3.59;0.22;2.50;-2.50;18.95
6.86;1.20;-0.54;0.87;-11.33;14.92
7.73;3.59;1.09;-0.65;4.79;14.16
16.55;8.39;2.72;3.38;2.40;-15.68
9.26;7.62;4.25;-1.52;0.76;0.44
2.07;6.75;0.22;0.11;-0.87;-2.72
5.23;4.36;-15.03;0.11;1.52;-1.96
-5.99;5.99;-1.31;-2.29;-2.50;-14.81
-14.92;1.96;5.12;2.50;1.52;-10.02
-10.89;1.20;17.21;4.14;3.92;-37.35
-17.32;0.33;-2.18;0.11;0.76;-14.81
-8.39;-6.10;-0.54;-1.52;0.76;-11.65
14.92;-4.46;-0.54;-1.52;-0.87;-10.02
8.49;-6.86;-2.18;-1.52;-3.27;-19.71
-1.96;-7.73;-0.54;37.13;-3.27;-9.15
-0.33;-2.07;-1.31;8.93;22.54;2.07
-4.36;-5.34;-2.94;32.34;-4.90;2.94
-10.89;-2.83;-1.31;-1.52;2.40;3.70
-9.26;-6.10;-17.42;1.74;3.92;4.46
0.44;1.20;-0.54;29.08;0.76;10.13
3.70;1.96;3.48;-1.52;2.40;2.07
6.10;5.99;0.22;2.50;-3.27;2.07
5.23;-6.10;0.22;0.87;3.16;2.94
3.70;-10.13;1.85;4.14;3.16;11.00
2.07;4.36;3.48;11.33;8.82;14.16
3.70;6.75;5.12;-0.65;-5.66;25.48
2.07;5.99;1.09;4.14;-5.66;27.01
-10.02;-14.16;2.72;4.14;-2.50;6.10
4.46;8.39;1.09;-0.65;3.16;-9.15
2.83;4.36;0.22;-0.65;4.79;-24.50
3.70;-2.07;1.09;-3.16;4.79;-27.77
0.44;-5.34;-1.31;-1.52;4.79;-14.05
1.20;-5.34;1.09;4.14;3.92;-31.80
-6.86;-6.86;-25.48;0.87;4.79;0.44
-0.33;-6.86;-1.31;-1.52;8.82;6.10
-9.26;11.65;-0.54;13.83;4.79;14.16
-3.59;-6.10;-7.84;0.11;4.79;16.55
2.07;-1.31;-2.18;-2.29;8.82;14.16
2.07;-7.73;-0.54;2.50;4.79;2.07
2.83;-6.86;-1.31;-1.52;-6.53;-1.96
-0.33;3.59;-0.54;-3.92;-13.72;2.94
2.83;5.99;-20.69;-5.55;-10.56;2.07
-8.39;-0.44;4.25;-3.16;-13.72;11.00
2.83;5.99;3.48;-6.32;-18.62;11.00
3.70;6.75;1.09;-3.92;-8.93;2.94
6.10;7.62;5.12;-1.52;-3.27;1.31
5.23;5.99;1.09;-1.52;0.76;-3.59
2.07;4.36;1.09;-2.29;-0.87;-6.75
0.44;1.96;-0.54;3.38;3.92;-10.78
-1.20;4.36;23.63;-0.65;5.55;-14.81
-0.33;5.99;-0.54;2.50;6.43;-13.18
20.58;-6.86;-2.94;0.11;6.43;-10.78
11.76;-9.26;-1.31;1.74;4.79;-10.78
-3.59;-11.76;-0.54;0.87;5.55;-5.12
-3.59;-9.26;-3.81;-1.52;4.79;0.44
-1.20;-6.86;-25.48;4.14;3.92;9.37
-4.36;-5.34;-0.54;4.14;1.52;10.13
-6.86;-6.86;-4.57;-0.65;0.76;2.94
2.07;-7.73;-0.54;-0.65;20.04;2.07
-1.20;5.99;-18.30;4.14;4.79;10.13
-3.59;3.59;-2.18;-1.52;-2.50;11.76
3.70;5.99;-0.54;0.11;2.40;6.97
3.70;5.99;5.12;-0.65;-3.27;4.46
2.83;5.23;4.25;0.87;-0.11;7.73
2.07;5.99;8.28;4.14;1.52;2.07
18.19;6.75;1.09;0.87;-4.14;-8.39
4.46;7.62;4.25;-0.65;2.40;-3.59
2.07;5.23;4.25;-1.52;-5.66;-14.81
3.70;-20.58;5.12;7.30;-4.90;-23.74
1.20;3.59;-0.54;16.23;-0.87;-23.74
-1.20;-4.46;-0.54;0.11;3.92;-11.65
-13.29;-14.16;-0.54;0.87;4.79;0.44
-5.99;-6.86;-1.31;1.74;4.79;10.13
-0.33;-5.34;-0.54;-4.68;3.92;0.44
-22.11;-8.49;1.09;1.74;6.43;2.07
0.44;-10.89;-0.54;-2.29;0.76;3.70
-4.36;-7.73;22.87;-0.65;-0.11;13.39
-3.59;-6.86;1.85;-1.52;3.92;16.55
-3.59;-5.34;1.85;2.50;-8.17;-0.33
-3.59;1.20;0.22;0.87;-10.56;0.44
2.07;-1.31;0.22;-2.29;0.76;16.55
3.70;4.36;1.85;-0.65;-3.27;7.73
2.83;5.99;5.12;-0.65;0.76;14.16
2.83;5.99;1.85;1.74;-0.87;14.16
2.83;8.39;4.25;-0.65;12.85;3.70
2.07;8.39;3.48;0.87;0.76;-9.15
3.70;6.75;26.90;0.87;-2.50;-12.41
3.70;3.59;5.12;6.53;-2.50;-11.65
5.23;2.72;8.28;-0.65;-3.27;-12.41
-9.26;-1.31;5.88;-3.16;3.92;-10.02
2.07;-6.86;1.85;0.87;3.16;-10.02
-0.33;-8.49;1.85;-2.29;-0.11;0.44
1.20;-7.73;3.48;1.74;7.19;-5.12
2.07;-8.49;2.72;1.74;0.76;1.31
-6.86;-3.70;-4.57;-1.52;2.40;11.00
-1.96;-6.10;-0.54;0.11;3.92;-1.09
-3.59;-4.46;-2.18;-25.70;3.92;6.97
-1.96;-2.83;-0.54;28.31;-4.90;-6.75
1.20;0.33;-1.31;37.13;-2.50;-11.65
-4.36;0.33;-0.54;-2.29;0.76;-1.09
7.73;5.99;-2.18;3.38;3.16;20.58
14.16;3.59;-0.54;0.87;3.92;35.94
3.70;1.96;9.15;1.74;4.79;24.61
2.07;10.02;1.85;-2.29;-0.11;16.55
2.07;6.75;-0.54;11.33;3.92;2.94
-18.08;6.75;-0.54;-1.52;-2.50;-2.72
-7.62;5.99;1.09;0.11;2.40;-18.08
-11.65;4.36;1.85;-0.65;-8.17;-37.35
-6.86;4.36;-18.30;-2.29;-28.31;-34.19
3.70;4.36;-1.31;-14.37;-0.11;-23.74
9.26;-9.26;-2.94;2.50;2.40;-10.02
-0.33;3.59;-0.54;-0.65;4.79;2.07
-5.23;-6.10;-5.34;-1.52;-4.14;-5.12
1.20;-6.10;-9.37;31.47;-5.66;2.07
-4.36;-4.46;-2.94;-3.92;3.16;3.70
-5.23;-7.73;-0.54;-1.52;-4.14;2.07
-1.20;-8.49;-2.94;9.80;-12.20;9.37
-3.59;-10.13;-0.54;-3.16;3.92;9.37
-3.59;-1.31;-22.32;-2.29;-0.87;3.70
-1.20;5.23;-1.31;16.99;1.52;12.52
3.70;1.96;-0.54;-1.52;3.16;11.00
-1.20;1.96;0.22;3.38;2.40;10.13
-13.29;5.99;-0.54;8.93;-6.53;12.52
2.07;5.99;0.22;-3.16;-0.87;11.00
4.46;5.99;3.48;-0.65;-13.72;2.07
6.10;5.99;-0.54;-0.65;4.79;-0.33
3.70;5.99;-0.54;11.33;0.76;0.44
3.70;5.99;1.85;0.87;0.76;0.44
5.23;2.72;1.09;3.38;-0.11;-10.78
2.07;2.72;-0.54;0.87;4.79;-16.44
2.83;-35.94;-0.54;3.38;4.79;-10.78
0.44;-32.67;-0.54;3.38;4.79;-12.41
-5.23;-1.31;-1.31;5.77;4.79;-14.81
1.20;-8.49;-4.57;1.74;4.79;-6.75
-5.23;-6.10;-0.54;0.11;3.16;-31.80
-6.86;-8.49;-0.54;-1.52;3.92;-6.75
-9.26;-6.10;-8.60;3.38;3.16;0.44
-8.39;-6.86;-0.54;1.74;2.40;6.10
-4.36;3.59;-2.94;-3.16;-3.27;12.52
-1.96;1.96;-6.21;0.87;-4.14;45.63
3.70;5.99;16.33;0.11;-2.50;25.48
1.20;5.99;-0.54;-1.52;-5.66;14.16
2.83;6.75;4.25;-1.52;-7.30;14.16
1.20;9.26;-0.54;37.13;0.76;10.13
2.83;7.62;-6.21;-3.92;3.16;18.95
2.83;10.02;17.97;0.87;3.92;10.13
3.70;5.99;3.48;2.50;4.79;-16.44
1.20;5.99;0.22;4.14;3.92;-21.24
3.70;5.99;1.09;-1.52;0.76;-18.08
6.10;28.53;2.72;3.38;-15.35;-24.50
-7.62;-1.31;-1.31;9.80;2.40;-18.84
-7.62;-2.83;1.85;4.90;-2.50;-15.68
-3.59;-6.86;-0.54;-2.29;-7.30;-10.78
-39.86;-9.26;4.25;-5.55;-3.27;-6.75
1.20;-19.82;-0.54;16.23;-0.87;2.07
2.83;-8.49;-0.54;5.77;-8.17;4.46
3.70;-4.46;-4.57;0.11;0.76;11.00
1.20;-6.86;-1.31;-1.52;3.92;15.79
-6.86;-5.34;0.22;5.77;-0.11;16.55
-1.20;0.33;-2.94;0.11;2.40;36.70
1.20;10.02;-0.54;4.14;-5.66;13.39
10.89;-8.49;-0.54;4.14;-4.14;12.52
3.70;5.99;-0.54;-32.13;-3.27;4.46
4.46;8.39;4.25;-3.16;2.40;6.97
-23.74;5.99;4.25;4.14;2.40;2.94
-17.32;1.96;-0.54;3.38;-0.11;2.07
2.07;7.62;-1.31;5.77;0.76;-0.33
3.70;4.36;4.25;0.87;3.16;-11.65
2.07;2.72;-4.57;-0.65;-7.30;-28.53
-3.59;-4.46;-0.54;1.74;0.76;-25.26
-18.08;-2.07;-1.31;-1.52;4.79;-14.81
-6.86;-7.73;-0.54;0.87;2.40;-10.02
-10.02;-6.10;-0.54;-1.52;6.43;-5.12
18.19;-7.73;-4.57;-4.68;4.79;-1.96
-4.36;-6.86;-0.54;-0.65;3.92;-10.78
-3.59;-7.73;-1.31;6.53;3.92;-6.75
-4.36;-6.86;-2.94;-1.52;19.28;0.44
-5.23;-6.86;-2.18;9.80;0.76;-10.02
2.07;-6.10;-1.31;-1.52;3.16;13.39
2.07;1.96;25.26;2.50;3.16;26.24
6.10;1.20;3.48;3.38;4.79;16.55
1.20;5.23;1.09;3.38;-0.11;16.55
3.70;1.20;1.85;-8.71;25.70;25.48
3.70;5.99;1.09;-1.52;-2.50;29.51
3.70;3.59;1.85;-1.52;-0.11;27.88
3.70;5.99;3.48;0.11;1.52;2.94
2.83;5.99;3.48;-1.52;-4.14;-19.71
-1.20;5.99;1.09;-2.29;-20.26;-28.53
3.70;4.36;1.85;-20.04;-4.90;-35.83
4.46;5.23;-0.54;5.77;-2.50;-43.89
7.73;-4.46;4.25;3.38;2.40;-30.93
3.70;-6.86;0.22;0.11;-12.20;-10.02
7.73;-3.70;-0.54;11.33;5.55;2.07
-7.62;-8.49;-0.54;-11.22;0.76;-0.33
-5.99;-10.89;-4.57;-3.16;-4.14;4.46
-0.33;-11.76;-3.81;-3.92;-6.53;2.94
-3.59;-6.10;-0.54;-2.29;-6.53;2.07
-0.33;-2.07;-0.54;-1.52;-2.50;2.07
2.83;-1.31;0.22;-3.16;-0.87;14.92
2.07;4.36;-0.54;1.74;-0.11;19.82
0.44;5.99;-0.54;6.53;-3.27;12.52
3.70;9.26;4.25;2.50;-3.27;10.13
3.70;7.62;1.09;6.53;3.16;6.10
0.44;5.99;3.48;-0.65;-3.27;7.73
3.70;5.99;3.48;3.38;-3.27;4.46
1.20;6.75;5.12;4.14;-12.20;2.07
3.70;5.99;1.85;4.14;2.40;-0.33
3.70;5.23;0.22;3.38;0.76;-5.12
2.83;33.43;1.85;-8.71;3.92;-8.39
-5.23;-6.10;-0.54;5.77;-0.11;-10.02
-5.99;5.23;-0.54;-9.58;3.16;-18.08
-3.59;-2.07;1.85;2.50;2.40;-8.39
-5.23;-6.86;-0.54;0.87;4.79;-8.39
-9.26;-6.86;11.54;4.14;4.79;-6.75
-7.62;-9.26;-0.54;9.80;3.92;-8.39
-5.23;-6.10;16.33;-1.52;3.92;-23.74
-1.96;-6.86;-4.57;-2.29;-8.93;6.10
-5.23;-7.73;-1.31;-2.29;0.76;11.00
1.20;-2.83;-1.31;3.38;7.95;19.82
-5.23;-22.98;-2.94;-1.52;-0.87;14.16
1.20;5.99;-1.31;4.14;-4.14;14.16
2.83;3.59;0.22;3.38;-1.63;13.39
3.70;3.59;1.09;-0.65;-4.14;11.76
27.88;5.99;1.85;-0.65;-0.87;10.13
4.46;10.78;0.22;-0.65;0.76;15.79
2.83;10.02;0.22;4.14;-2.50;-8.39
3.70;5.99;-0.54;7.30;3.16;2.07
2.07;5.99;1.85;4.14;-0.11;-3.59
2.83;5.23;16.33;2.50;4.79;-11.65
0.44;2.72;0.22;-3.92;0.76;-14.05
8.49;-1.31;-2.18;-0.65;4.79;-18.08
-5.23;-31.91;1.09;3.38;-2.50;-20.47
-5.23;-6.86;-0.54;-0.65;-4.14;-23.74
-16.44;-6.86;-2.94;-29.73;-2.50;2.07
-1.20;-7.73;-0.54;-2.29;0.76;-1.96
-7.62;-9.26;-1.31;-4.68;4.79;2.07
-4.36;-3.70;5.12;2.50;4.79;-10.78
4.46;-5.34;-0.54;-1.52;1.52;6.97
-1.20;-7.73;-0.54;5.77;2.40;7.73
15.79;-18.19;-0.54;-1.52;2.40;22.22
2.83;-28.64;1.09;6.53;1.52;22.98
2.07;17.32;-0.54;-2.29;-0.11;19.82
-8.39;5.99;-0.54;4.14;-2.50;15.79
-3.59;5.99;3.48;0.87;3.92;18.95
2.07;-9.26;1.85;0.87;-0.11;2.07
2.83;5.99;1.85;-2.29;-21.02;2.07
-3.59;5.23;1.85;-2.29;-0.11;-5.99
13.29;5.23;0.22;0.87;4.79;-9.15
3.70;1.96;5.12;0.11;0.76;-10.78
-13.29;-27.88;-0.54;-0.65;3.16;-18.84
-0.33;-2.83;-1.31;-12.74;-0.87;-22.11
-1.20;-4.46;16.33;-0.65;-2.50;-14.81
-0.33;-9.26;-8.60;-0.65;-0.11;-10.78
1.20;-10.13;-0.54;0.87;-0.11;-10.02
-1.96;-1.31;-14.27;-5.55;1.52;-3.59
-0.33;0.33;-2.18;-3.92;3.92;-6.75
-23.74;-20.58;1.85;-9.58;-2.50;2.07
-3.59;-6.86;1.85;0.87;2.40;4.46
-6.86;-4.46;-1.31;-1.52;3.92;-10.78
-0.33;1.96;1.09;2.50;-0.11;32.67
2.83;5.99;3.48;-0.65;3.92;18.95
2.83;4.36;3.48;3.38;0.76;13.39
3.70;5.23;3.48;-29.73;3.92;6.10
9.26;5.99;5.88;0.87;3.92;3.70
9.26;4.36;6.75;0.87;2.40;3.70
11.76;-1.31;1.85;0.11;2.40;-0.33
3.70;5.99;5.12;0.87;4.79;1.31
-4.36;5.99;3.48;4.14;5.55;-2.72
-5.23;5.99;-0.54;5.77;7.19;2.94
-11.65;1.96;0.22;8.17;4.79;-8.39
-10.89;-15.79;1.85;31.47;19.28;-10.02
0.44;-4.46;-0.54;10.56;-0.11;-1.96
-10.89;-3.70;-0.54;-5.55;3.16;11.00
-6.86;-3.70;-0.54;-6.32;-4.14;-26.14
-0.33;-6.86;-2.94;-3.92;-21.02;-37.35
2.83;-6.86;1.09;-2.29;-8.17;-21.24
2.83;-1.31;-1.31;-1.52;-4.14;-5.12
2.07;-4.46;1.09;0.87;-4.14;3.70
2.83;-27.88;8.28;-1.52;-2.50;6.10
2.83;-1.31;5.12;-0.65;0.76;14.16
3.70;3.59;8.28;-0.65;3.92;22.98
-5.23;3.59;9.91;0.87;18.51;18.19
22.22;1.96;5.12;-3.16;2.40;10.13
1.20;11.65;9.91;2.50;-3.27;15.79
3.70;14.05;9.91;-10.35;-0.87;6.97
6.10;7.62;1.85;0.87;-3.27;-5.12
3.70;10.02;3.48;-8.71;-6.53;2.07
3.70;5.99;1.85;4.14;-5.66;-1.96
5.23;5.99;0.22;4.14;-4.90;-8.39
1.20;4.36;-0.54;-1.52;3.16;-7.62
-3.59;-6.86;1.09;2.50;3.92;-11.65
3.70;20.47;-0.54;-2.29;5.55;-5.12
1.20;-9.26;-2.18;2.50;7.19;-4.36
-1.20;-6.86;-2.18;2.50;4.79;-8.39
-1.96;-4.46;-1.31;-2.29;4.79;-6.75
-3.59;18.84;-5.34;-3.16;4.79;0.44
2.07;-4.46;-3.81;0.87;-0.87;2.94
3.70;2.72;-2.18;-3.92;4.79;27.88
3.70;-6.86;-1.31;3.38;-5.66;28.64
3.70;1.96;-7.84;2.50;-5.66;27.88
-0.33;5.99;-0.54;-8.71;-7.30;20.58
3.70;2.72;12.31;2.50;-2.50;31.91
10.89;5.99;-3.81;1.74;-13.72;0.44
2.07;5.99;-2.94;-1.52;-3.27;-10.78
2.07;5.99;-1.31;0.87;-12.96;-22.87
0.44;28.53;-0.54;-3.92;-0.87;-15.68
5.23;5.99;-0.54;-0.65;-6.53;-8.39
-9.26;4.36;-4.57;-1.52;4.79;-10.02
3.70;4.36;-4.57;2.50;-0.11;-7.62
-0.33;-1.31;-5.34;25.05;-6.53;-20.47
-0.33;-1.31;-4.57;0.11;-0.87;-22.11
-3.59;-6.86;-3.81;2.50;3.16;-25.26
-5.99;-6.86;-7.84;0.87;4.79;2.07
-8.39;-10.13;-4.57;4.14;5.55;-6.75
-5.23;-14.92;-4.57;0.87;4.79;1.31
-8.39;-8.49;-9.37;1.74;3.16;2.07
-3.59;-8.49;-27.12;0.87;4.79;22.98
2.83;-10.89;-0.54;-19.28;4.79;12.52
-22.11;-6.86;-3.81;1.74;4.79;19.82
8.49;-8.49;-0.54;-1.52;1.52;21.45
3.70;1.96;-17.42;5.77;-0.87;16.55
3.70;3.59;7.51;0.87;-2.50;12.52
6.86;6.75;6.75;2.50;-0.87;4.46
4.46;5.99;3.48;6.53;-2.50;6.10
2.83;7.62;3.48;6.53;2.40;1.31
2.07;-20.58;3.48;-1.52;-3.27;-4.36
3.70;4.36;0.22;0.87;0.76;-2.72
0.44;6.75;1.85;-2.29;-0.87;-12.41
-27.77;1.20;0.22;0.87;-2.50;-12.41
1.20;-4.46;-2.18;6.53;-0.11;-15.68
10.89;-4.46;-0.54;-3.92;2.40;-12.41
2.83;-5.34;-0.54;-0.65;2.40;-10.78
-4.36;-6.86;0.22;0.11;4.79;-28.53
-11.65;-6.86;-1.31;-3.16;4.79;-9.15
-5.23;-11.76;-2.94;0.87;16.88;-23.74
0.44;-6.86;-2.18;1.74;4.79;-10.78
-1.96;0.33;-0.54;25.92;3.92;2.07
-0.33;-6.86;-0.54;-3.92;-4.14;2.07
-0.33;-1.31;-2.18;-0.65;0.76;27.01
-3.59;5.23;-0.54;0.87;-0.11;32.67
-1.96;-2.07;-2.18;5.77;0.76;57.72
-4.36;5.99;-0.54;-1.52;-25.05;30.27
2.07;7.62;1.09;-0.65;3.16;19.82
14.16;5.99;1.85;-1.52;-3.27;39.97
10.13;5.99;5.12;-1.52;-25.05;2.07
3.70;4.36;1.09;2.50;-0.87;-5.99
3.70;2.72;0.22;3.38;-4.14;-11.65
2.83;9.26;-0.54;-1.52;-25.05;-10.02
2.07;1.96;1.85;-1.52;-2.50;-8.39
-1.96;5.99;1.85;-3.92;2.40;-8.39
-3.59;-3.70;-9.37;0.11;14.48;-6.75
-22.98;-9.26;0.22;-2.29;1.52;-9.15
-0.33;-1.31;12.31;2.50;3.92;-8.39
-9.26;-8.49;-2.18;0.11;4.79;-11.65
-4.36;-14.16;-2.18;0.87;2.40;-8.39
-4.36;-5.34;-2.94;0.87;6.43;-2.72
-7.62;-4.46;-2.18;-3.16;-3.27;-12.41
13.29;-9.26;-2.94;-22.43;3.16;-1.96
-2.83;-2.83;1.85;6.53;-2.50;2.07
2.07;1.20;0.22;0.11;-12.96;-4.36
-0.33;4.36;1.09;6.53;-5.66;1.31
-13.29;3.59;-0.54;4.14;-0.87;27.88
3.70;1.96;1.85;0.87;-4.14;-0.33
6.10;8.39;7.51;2.50;-0.11;7.73
20.58;5.99;2.72;1.74;4.79;2.07
4.46;7.62;-0.54;4.14;34.63;2.07
3.70;5.23;-0.54;3.38;-21.02;2.94
3.70;8.39;17.21;0.87;4.79;2.07
2.83;5.99;1.09;2.50;1.52;-16.44
-0.33;0.33;-2.18;-1.52;1.52;-11.65
-6.86;-1.31;-0.54;-0.65;21.67;-14.81
-8.39;-6.86;-0.54;-2.29;-0.11;-15.68
-7.62;-10.89;-2.94;0.11;-0.87;-10.78
2.07;-6.10;-4.57;-1.52;2.40;-5.12
-5.99;-9.26;-0.54;-2.29;8.82;-0.33
-4.36;-9.26;-7.84;-0.65;8.82;2.07
-8.39;-6.86;-0.54;5.77;4.79;2.07
6.86;-6.10;-0.54;1.74;3.16;7.73
14.16;1.20;0.22;0.87;0.76;15.79
15.79;1.96;-1.31;21.89;-2.50;18.95
3.70;5.99;-0.54;1.74;-0.11;17.42
2.07;5.99;1.09;3.38;-2.50;7.73
-3.59;5.99;0.22;0.11;-0.11;9.37
-5.23;5.99;4.25;6.53;-3.27;2.07
-3.59;13.29;1.85;0.87;3.92;3.70
2.07;10.78;8.28;0.11;3.16;6.10
-5.23;5.99;1.85;1.74;0.76;2.07
5.23;5.99;1.85;1.74;1.52;-5.99
2.07;1.20;-1.31;1.74;20.04;-10.78
-3.59;-1.31;-1.31;-4.68;-5.66;-13.18
-6.86;-5.34;-0.54;-1.52;-0.11;-11.65
-14.92;-4.46;-2.94;3.38;5.55;-13.18
-8.39;-6.86;-2.18;-5.55;3.16;-8.39
-8.39;-8.49;-2.18;-1.52;4.79;-10.02
-5.23;-8.49;-1.31;4.14;0.76;-0.33
-1.20;-6.86;-4.57;-3.16;0.76;2.07
1.20;-6.86;-2.18;-3.16;2.40;11.00
-1.96;-4.46;-0.54;1.74;0.76;13.39
18.95;-6.10;0.22;-8.71;2.40;16.55
7.73;0.33;-0.54;0.11;0.76;19.82
9.26;10.78;0.22;23.41;0.76;16.55
5.23;1.96;4.25;1.74;-0.11;19.82
3.70;5.23;-0.54;-0.65;3.16;25.48
2.83;6.75;3.48;3.38;-0.87;27.88
7.73;7.62;1.85;6.53;-0.87;17.42
-13.29;8.39;-15.03;-1.52;-2.50;-10.02
3.70;5.99;2.72;4.14;-0.87;-12.41
5.23;5.99;1.09;3.38;3.16;-23.74
7.73;3.59;1.09;5.77;0.76;-23.74
-4.36;-4.46;0.22;5.77;-21.02;-41.38
-5.99;30.93;-2.18;-1.52;-0.11;-53.47
-4.36;-5.34;-0.54;2.50;-4.14;-38.99
-10.89;-2.83;-2.18;4.14;-21.02;-23.74
-11.65;-10.89;-1.31;20.26;4.79;-5.12
-20.47;-7.73;-6.21;0.87;4.79;5.34
-12.41;-5.34;-1.31;-3.16;17.64;23.85
-1.20;-4.46;-0.54;-28.86;-3.27;27.88
2.83;0.33;1.09;0.87;7.19;27.88
0.44;0.33;4.25;4.90;5.55;27.88
3.70;1.20;3.48;11.33;23.30;25.48
2.83;9.26;0.22;-1.52;2.40;11.00
3.70;7.62;0.22;-21.67;-7.30;6.10
7.73;7.62;-0.54;-1.52;-5.66;30.27
2.07;9.26;-0.54;2.50;-21.02;-0.33
3.70;5.99;0.22;3.38;-20.26;-18.84
6.86;10.02;6.75;-1.52;-8.93;3.70
10.89;4.36;-0.54;3.38;-13.72;-1.96
3.70;1.20;3.48;-1.52;-3.27;-5.12
2.07;7.62;13.94;0.11;-3.27;-3.59
17.32;-4.46;3.48;0.87;4.79;-14.05
-1.20;-2.07;-0.54;-0.65;2.40;-10.78
3.70;-6.86;-4.57;6.53;-3.27;-18.08
3.70;-5.34;-15.03;-0.65;3.92;7.73
3.70;-10.89;-1.31;0.87;8.82;-11.65
-6.86;-4.46;-0.54;1.74;4.79;-10.02
-8.39;-4.46;-0.54;-1.52;3.92;-0.33
-1.96;-9.26;-0.54;-0.65;3.16;9.37
-1.20;-1.31;-20.69;0.11;4.79;-11.65
2.83;0.33;-1.31;2.50;0.76;17.42
3.70;-2.83;-0.54;-1.52;2.40;6.97
5.23;5.23;0.22;-2.29;-2.50;35.07
3.70;5.99;13.94;0.87;-2.50;-8.39
6.10;10.78;1.85;-2.29;-7.30;11.00
-6.86;6.75;4.25;-2.29;-21.02;3.70
4.46;5.99;1.85;-3.16;-0.87;4.46
2.07;6.75;-0.54;3.38;4.79;-2.72
-0.33;5.99;1.85;2.50;-10.56;-10.02
-8.39;6.75;-0.54;3.38;3.16;-8.39
-4.36;5.99;-23.09;7.30;3.92;-15.68
3.70;-2.07;0.22;-24.83;-0.11;-12.41
-2.83;-33.43;-0.54;-0.65;4.79;-22.87
-10.89;10.78;-0.54;-0.65;7.95;-10.02
-1.96;-5.34;-0.54;2.50;12.85;-6.75
-5.23;-8.49;1.09;-0.65;2.40;-25.26
2.07;-7.73;-6.21;0.11;-2.50;0.44
-5.23;-7.73;-0.54;16.99;4.79;2.07
2.07;-10.89;-1.31;0.87;-3.27;3.70
2.83;8.39;-2.18;19.38;-4.14;14.16
2.83;0.33;0.22;-5.55;-3.27;20.58
3.70;5.23;0.22;2.50;-9.69;17.42
-3.59;4.36;-1.31;5.77;-10.56;2.07
5.23;6.75;1.09;0.87;-5.66;2.94
4.46;10.02;3.48;0.11;-4.90;3.70
6.10;5.99;-0.54;-0.65;0.76;7.73
8.49;7.62;8.28;0.11;2.40;0.44
7.73;24.50;5.12;-1.52;3.92;1.31
3.70;5.99;4.25;-24.83;3.16;-5.99
1.20;5.99;1.85;8.17;4.79;-8.39
-5.23;3.59;3.48;-0.65;5.55;-9.15
-1.96;3.59;-0.54;0.87;0.76;-18.84
-1.96;-1.31;-2.18;3.38;-5.66;-35.83
-7.62;-7.73;-0.54;6.53;-0.87;-22.87
-0.33;-4.46;25.26;0.11;-0.87;-6.75
-0.33;-10.13;-1.31;2.50;-12.20;-0.33
-3.59;-7.73;1.09;0.87;3.16;22.22
-3.59;-10.89;-0.54;0.11;1.52;2.07
5.23;-6.86;-0.54;3.38;0.76;3.70
4.46;-4.46;-0.54;0.11;-2.50;14.16
2.07;1.96;-0.54;4.14;3.16;11.00
-29.40;1.96;-0.54;-0.65;3.92;22.22
4.46;4.36;1.85;3.38;4.79;7.73
-1.96;5.99;-0.54;0.87;3.16;23.85
-10.02;-6.86;3.48;29.95;3.92;15.79
-3.59;7.62;4.25;0.11;-0.11;11.00
4.46;-7.73;1.09;-0.65;-0.11;-8.39
3.70;5.23;0.22;-0.65;-0.11;-14.81
5.23;5.99;-0.54;-1.52;-2.50;-11.65
0.44;3.59;3.48;0.87;-2.50;-18.08
0.44;-1.31;-0.54;-1.52;-2.50;-19.71
-5.23;-4.46;-0.54;-1.52;-2.50;-12.41
-3.59;0.33;-2.94;-1.52;-4.14;-23.74
-3.59;-6.86;-23.09;-1.52;-0.87;-18.08
-5.99;-9.26;-2.94;-1.52;4.79;-18.84
-3.59;-6.10;-1.31;0.11;2.40;-11.65
3.70;-7.73;-0.54;0.11;-18.62;-1.09
2.83;-5.34;-2.94;-2.29;2.40;27.01
-3.59;-19.82;-0.54;-2.29;4.79;8.49
-5.23;-5.34;1.09;0.11;7.95;19.82
-1.96;-1.31;-0.54;-1.52;4.79;17.42
-0.33;-2.83;3.48;7.30;2.40;20.58
2.07;0.33;3.48;6.53;2.40;14.16
-1.20;4.36;-0.54;3.38;-2.50;12.52
2.83;9.26;1.09;-3.92;2.40;4.46
3.70;10.02;2.72;0.11;-7.30;7.73
20.58;5.99;-0.54;0.87;-8.17;4.46
14.16;10.02;1.09;6.53;3.92;-3.59
9.26;10.02;0.22;-0.65;-29.84;-10.78
3.70;-1.31;-0.54;-1.52;0.76;-10.78
3.70;5.23;-5.34;2.50;4.79;2.07
1.20;0.33;-0.54;4.14;-4.14;-18.08
-1.20;0.33;-0.54;34.74;3.16;-20.47
-1.96;-6.86;-2.94;4.90;3.92;-19.71
-6.86;-7.73;0.22;-3.16;3.92;-18.84
-8.39;-14.16;-0.54;4.14;4.79;-10.78
-10.89;-2.83;-4.57;4.14;7.19;-18.08
-17.32;-7.73;-1.31;5.77;5.55;-9.15
15.79;-12.52;-0.54;9.80;3.16;7.73
-17.32;-8.49;-23.96;11.33;6.43;27.88
-10.02;-6.10;-0.54;12.96;4.79;35.07
-3.59;3.59;-0.54;5.77;2.40;38.33
3.70;3.59;0.22;10.56;-3.27;25.48
2.07;5.99;1.09;1.74;-9.69;-10.78
3.70;6.75;4.25;-1.52;-29.84;13.39
7.73;5.99;7.51;-6.32;0.76;14.92
20.58;7.62;1.09;-23.30;-0.87;2.94
27.01;1.96;-0.54;-16.77;-4.14;-3.59
12.52;3.59;-0.54;-15.25;5.55;-21.24
3.70;2.72;-0.54;-3.92;-4.14;-43.89
3.70;3.59;-1.31;-10.35;-12.20;-21.24
-0.33;0.33;-12.63;-14.37;-4.14;-2.72
-5.23;1.96;-0.54;6.53;-4.14;12.52
-0.33;-7.73;-5.34;7.30;-3.27;-12.41
-1.20;-6.86;-0.54;-1.52;-3.27;-21.24
-4.36;-8.49;-2.18;0.87;-0.87;-19.71
-1.96;-7.73;-1.31;-0.65;-0.87;-18.08
-3.59;-6.86;-2.94;4.14;0.76;-12.41
-1.96;-6.10;-4.57;8.17;-2.50;-15.68
-14.05;-2.83;-0.54;2.50;-0.11;6.97
-39.10;-6.86;-0.54;0.87;4.79;14.92
-1.20;1.96;-3.81;4.14;3.92;19.82
4.46;1.20;1.09;3.38;3.16;27.01
3.70;10.02;1.85;7.30;2.40;22.98
-16.44;6.75;5.12;9.80;9.58;19.82
27.88;8.39;1.85;3.38;4.79;20.58
18.95;6.75;0.22;-1.52;-2.50;18.19
40.73;8.39;1.09;4.14;-4.14;2.07
11.76;10.02;1.09;0.11;-7.30;-22.87
3.70;5.23;0.22;18.62;-5.66;-13.18
18.19;1.96;1.85;4.14;-0.11;-14.05
3.70;-2.83;3.48;-1.52;4.79;19.82
9.26;-3.70;-0.54;0.11;3.92;-18.84
-4.36;-6.86;-1.31;-2.29;0.76;-13.18
30.27;-1.31;-0.54;-1.52;1.52;-5.12
-1.20;-10.89;-2.18;-2.29;4.79;-0.33
-6.86;-10.89;-2.94;1.74;16.01;-18.84
-34.19;-6.86;-26.35;-2.29;-6.53;-18.84
-27.77;-6.10;6.75;-2.29;0.76;-10.78
-21.34;-7.73;-1.31;1.74;3.16;7.73
-16.44;-14.92;-0.54;4.14;4.79;25.48
15.79;4.36;0.22;4.14;4.79;27.88
35.07;5.99;-0.54;-0.65;-10.56;27.88
39.97;10.78;3.48;0.87;0.76;29.51
39.10;10.02;3.48;-0.65;3.16;29.51
55.21;5.99;3.48;4.14;2.40;23.85
26.24;6.75;-0.54;-0.65;3.16;6.10
13.29;0.33;4.25;-2.29;-0.11;-9.15
-19.71;34.19;3.48;-1.52;-15.35;-3.59
3.70;7.62;-17.42;-2.29;-0.87;-14.05
2.07;-4.46;0.22;0.87;-5.66;-12.41
2.83;-4.46;-0.54;-1.52;-0.11;-15.68
-3.59;-8.49;1.09;0.11;2.40;-23.74
-17.32;-39.97;-1.31;-4.68;-2.50;-23.74
1.20;-6.86;-21.45;-2.29;-5.66;-26.14
-6.86;-10.89;-0.54;4.14;3.92;-12.41
1.20;-6.10;-2.18;-2.29;3.16;0.44
-3.59;-2.83;-4.57;-0.65;-2.50;12.52
-37.46;-19.82;-0.54;-3.92;0.76;15.79
3.70;-2.83;-2.18;0.11;2.40;14.16
1.20;3.59;13.18;6.53;-3.27;7.73
2.83;5.99;-0.54;-2.29;-0.87;14.92
13.29;6.75;-0.54;-6.32;-9.69;10.13
3.70;0.33;1.09;0.11;-0.11;-5.99
-0.33;3.59;1.85;7.30;-20.26;-11.65
-1.96;-1.31;1.85;3.38;-4.14;-10.02
-1.20;34.19;1.85;3.38;3.16;-2.72
-0.33;7.62;1.09;4.14;3.16;-5.99
-6.86;7.62;2.72;11.33;-0.11;-1.96
-7.62;5.99;3.48;12.20;3.92;-9.15
-8.39;5.23;4.25;11.33;4.79;-5.99
-14.05;1.20;0.22;21.89;4.79;-12.41
-8.39;0.33;0.22;24.28;7.19;-10.02
-14.05;-6.10;22.00;11.33;4.79;-6.75
-3.59;-7.73;-0.54;8.17;4.79;-5.12
-6.86;-6.86;0.22;-5.55;2.40;-5.12
-1.20;-7.73;-2.18;-22.43;-5.66;6.97
-7.62;-7.73;-2.94;-25.70;-6.53;10.13
-10.02;-7.73;1.85;-40.18;-0.11;6.10
-22.11;-31.04;-7.84;-24.83;-4.14;26.24
-14.92;1.20;21.24;-49.88;-3.27;17.42
-35.83;-23.85;-0.54;-41.82;-2.50;18.19
-2.83;-14.92;0.22;-0.65;-0.87;17.42
-23.74;-6.86;1.09;12.20;-7.30;4.46
-5.23;5.99;4.25;23.41;-2.50;2.94
-0.33;5.99;1.85;16.99;-4.14;11.00
14.92;5.23;10.78;12.20;-4.14;12.52
10.89;5.99;3.48;8.93;-8.17;-2.72
2.83;5.99;0.22;11.33;-7.30;-1.96
-1.96;5.99;-0.54;10.56;-6.53;-11.65
2.07;4.36;4.25;6.53;4.79;-15.68
6.10;-1.31;-0.54;5.77;9.58;-11.65
3.70;0.33;3.48;8.93;6.43;-21.24
-1.20;-5.34;-2.18;9.80;4.79;-19.71
-8.39;5.99;-4.57;5.77;3.92;-19.71
-8.39;-2.83;-0.54;6.53;5.55;-18.08
-17.32;-10.89;-0.54;8.93;13.61;2.07
-22.11;-8.49;-0.54;16.99;10.45;26.24
-31.04;-6.86;-7.84;7.30;7.19;37.57
-26.14;-7.73;0.22;4.14;4.79;27.88
-1.96;-10.13;2.72;-26.46;2.40;25.48
9.26;-1.31;1.85;2.50;-2.50;27.01
3.70;5.99;7.51;3.38;-4.14;24.61
25.37;7.62;3.48;2.50;-8.17;14.16
18.95;8.39;0.22;-0.65;-5.66;-13.18
11.76;7.62;1.09;-12.74;-12.20;-14.05
21.34;5.99;-6.97;-10.35;-4.90;-1.96
11.76;5.99;-0.54;-0.65;-4.14;-10.02
3.70;1.96;-0.54;2.50;0.76;-19.71
-10.89;5.23;1.09;3.38;3.92;-15.68
-13.29;7.62;-0.54;0.87;3.92;-18.08
-22.11;-6.86;-0.54;5.77;7.19;-22.87
-23.74;-32.67;0.22;11.33;4.79;-8.39
16.55;-17.32;-2.18;-28.10;3.16;-10.78
21.34;-7.73;-2.18;0.87;-8.17;-26.90
15.79;-7.73;-4.57;0.11;-16.23;-22.87
2.83;-10.13;-0.54;-3.16;-4.14;1.31
-7.62;-3.70;-1.31;-1.52;4.79;7.73
-7.62;-7.73;-0.54;-1.52;-0.87;28.64
-27.01;-4.46;-2.94;-4.68;0.76;31.91
4.46;-2.07;-14.27;0.87;-2.50;19.82
14.92;3.59;-0.54;-2.29;3.16;23.85
17.32;8.39;3.48;-0.65;5.55;33.54
45.52;7.62;5.12;6.53;3.16;28.64
20.58;7.62;3.48;2.50;3.16;11.00
5.23;10.02;33.32;3.38;0.76;-18.08
-1.96;6.75;-25.48;4.14;-3.27;-26.14
-9.26;1.96;1.09;-10.35;-2.50;-22.11
-12.41;1.96;1.09;-3.16;-2.50;-9.15
-1.20;2.72;0.22;20.26;3.92;-1.09
-10.89;1.20;-14.27;2.50;2.40;-5.99
3.70;-2.07;1.85;12.96;-0.87;-10.02
10.89;-7.73;-2.18;-0.65;3.16;-11.65
3.70;-7.73;-2.94;-0.65;3.92;-11.65
3.70;-7.73;-15.03;-0.65;4.79;-10.78
-10.02;-6.86;-3.81;-5.55;4.79;-29.29
-8.39;-4.46;-0.54;-3.16;4.79;-5.12
-6.86;-6.86;-2.18;-14.37;1.52;7.73
27.88;3.59;-0.54;-18.40;-0.11;18.95
27.01;-2.07;-0.54;0.87;3.16;16.55
20.58;-2.07;-0.54;0.11;-3.27;22.22
4.46;1.96;1.85;23.41;-5.66;23.85
-3.59;1.20;-7.84;2.50;-2.50;25.48
-11.65;4.36;-0.54;-0.65;-3.27;14.16
-35.83;5.99;4.25;-0.65;-0.11;36.70
-42.25;5.99;4.25;6.53;-1.63;10.13
-64.80;10.02;1.85;-14.37;1.52;10.13
-35.07;5.23;4.25;0.11;4.79;-10.78
-22.11;3.59;4.25;0.87;4.79;-25.26
18.19;5.23;1.09;0.87;3.16;-23.74
39.10;8.39;5.88;0.87;7.19;-5.12
55.21;5.99;1.09;0.11;4.79;-26.14
37.46;-1.31;-0.54;20.26;5.55;-10.02
47.92;1.20;-0.54;-0.65;5.55;-5.12
-10.89;-2.83;0.22;-1.52;2.40;-6.75
14.16;-11.76;-7.84;0.11;2.40;-33.32
3.70;-14.16;-0.54;0.87;2.40;11.76
-8.39;-2.07;-2.18;0.87;1.52;11.76
-13.29;-5.34;-14.27;-8.71;-4.14;6.10
-17.32;-5.34;-4.57;-3.16;-2.50;11.00
-10.02;-6.86;1.09;-1.52;0.76;6.10
-15.68;-5.34;-0.54;1.74;-4.14;10.13
-16.44;-5.34;-0.54;-0.65;-3.27;16.55
-8.39;5.99;-0.54;0.87;3.16;12.52
1.20;5.99;-0.54;-1.52;7.95;12.52
2.83;31.80;1.85;-9.58;-4.14;7.73
5.23;5.99;4.25;-1.52;0.76;4.46
6.10;7.62;3.48;0.87;-0.11;-3.59
13.29;14.81;1.09;-3.16;2.40;-10.78
12.52;1.20;8.28;-0.65;3.16;-10.78
6.10;-13.29;-0.54;4.14;-8.93;-14.81
6.10;1.20;-0.54;-6.32;-21.78;-22.11
-1.20;-6.10;-1.31;0.87;-3.27;-22.87
-6.86;-6.86;-0.54;-1.52;-2.50;-42.25
-26.14;-6.10;-2.94;-1.52;5.55;-8.39
-23.74;-7.73;-0.54;7.30;4.79;2.94
-22.11;-8.49;-13.39;9.80;9.58;22.98
-5.23;-2.07;1.09;16.99;11.98;20.58
7.73;26.14;-0.54;9.80;4.79;3.70
5.23;-1.31;-1.31;7.30;4.79;17.42
5.23;1.20;-17.42;6.53;4.79;2.07
9.26;4.36;-0.54;-2.29;10.45;41.60
7.73;0.33;-0.54;-9.58;-11.33;3.70
7.73;3.59;-0.54;-15.25;-7.30;9.37
3.70;5.23;1.09;-12.74;-13.72;2.07
8.49;6.75;-0.54;-11.98;4.79;-2.72
3.70;5.99;1.85;-14.37;-8.93;-3.59
5.23;5.99;-0.54;-1.52;-8.17;-8.39
2.83;3.59;-2.94;4.14;-8.93;-10.78
4.46;4.36;0.22;11.33;-9.69;14.16
11.76;6.75;1.85;7.30;-2.50;-9.15
14.92;-1.31;1.85;-18.40;0.76;-14.05
17.32;-2.07;-0.54;-0.65;4.79;-22.11
3.70;-2.07;1.09;2.50;0.76;-22.11
-3.59;-3.70;-8.60;0.11;7.95;-28.53
-9.26;-6.10;-1.31;0.87;11.98;-15.68
-22.98;-9.26;1.09;3.38;4.79;-12.41
-26.14;-9.26;4.25;8.17;6.43;-2.72
-29.40;-5.34;-0.54;15.35;1.52;10.13
-7.62;-5.34;8.28;19.38;7.19;11.00
6.10;-3.70;-0.54;14.59;4.79;5.34
12.52;5.99;3.48;3.38;3.16;25.48
3.70;5.23;2.72;-1.52;2.40;2.07
-7.62;1.96;1.85;-20.04;-0.11;1.31
1.20;1.96;2.72;-10.35;-4.14;4.46
-10.89;5.99;0.22;-12.74;-2.50;14.16
-13.29;5.99;1.85;-9.58;-4.14;16.55
22.22;8.39;5.12;-3.16;-3.27;19.82
18.95;1.96;0.22;3.38;-6.53;16.55
3.70;4.36;-12.63;2.50;-12.20;7.73
-5.23;0.33;-0.54;2.50;-15.35;-15.68
7.73;-1.31;-0.54;37.13;-9.69;-18.84
-1.96;-7.73;-0.54;3.38;-2.50;-28.53
-10.89;-2.83;1.09;-0.65;8.82;-15.68
-10.89;-2.07;-0.54;0.11;8.82;-14.81
10.89;-6.10;-0.54;0.11;5.55;-16.44
9.26;-8.49;-0.54;3.38;-9.69;-6.75
-13.29;-6.86;-0.54;2.50;7.19;2.07
0.44;-2.83;1.85;0.87;7.19;15.79
8.49;-7.73;1.85;0.87;8.82;18.95
9.26;-19.82;6.75;-19.28;5.55;26.24
23.85;5.99;8.28;4.14;4.79;28.64
15.79;5.23;0.22;-2.29;-0.11;22.22
11.76;4.36;3.48;6.53;-0.87;14.16
7.73;8.39;0.22;-0.65;-24.28;-3.59
2.83;5.99;2.72;-0.65;-9.69;-14.81
-9.26;5.99;-2.94;8.93;-8.93;-34.19
-6.86;5.99;0.22;11.33;-8.93;-11.65
12.52;5.99;2.72;-1.52;-2.50;-10.78
29.40;5.99;5.12;-2.29;-4.90;-36.59
16.55;5.99;-2.18;0.87;-5.66;-24.50
3.70;-2.83;-2.94;-9.58;-5.66;-21.24
-24.50;-6.86;-4.57;-6.32;-5.66;-13.18
-24.50;-10.89;-1.31;-4.68;0.76;-1.96
2.83;-4.46;-0.54;2.50;7.19;12.52
15.79;-9.26;-0.54;2.50;7.19;10.13
4.46;-12.52;-1.31;-3.16;6.43;3.70
-14.05;-8.49;-1.31;10.56;-5.66;-5.12
-23.74;-7.73;-1.31;-1.52;-5.66;-8.39
-39.86;-4.46;-0.54;4.14;2.40;-4.36
16.55;-4.46;13.94;0.11;-4.14;-1.09
28.64;2.72;-0.54;-3.16;-33.87;2.94
-72.09;-2.07;-26.35;-0.65;-5.66;16.55
-101.06;5.23;-0.54;2.50;2.40;29.51
-37.46;13.29;5.12;3.38;6.43;27.88
59.24;20.47;9.91;7.30;4.79;33.54
76.12;15.68;9.91;4.14;7.95;35.94
54.45;9.26;5.12;6.53;4.79;16.55
54.45;5.99;1.85;-0.65;1.52;2.07
55.21;4.36;1.09;0.11;-2.50;-15.68
67.30;29.40;0.22;-1.52;4.79;-26.14
98.77;3.59;-0.54;1.74;-0.11;-18.84
28.64;-9.26;-6.21;-10.35;-6.53;-62.40
-47.04;-10.89;-3.81;-3.92;-3.27;-46.28
-108.36;-7.73;-0.54;28.31;-0.11;-26.90
-126.11;-8.49;-1.31;-1.52;1.52;-27.77
-147.01;-7.73;-5.34;-4.68;-2.50;-9.15
-99.43;-6.86;-0.54;-9.58;-4.90;14.92
6.86;6.75;0.22;3.38;4.79;36.70
44.76;0.33;0.22;-3.16;-0.11;48.79
60.00;1.20;-2.18;-14.37;-0.11;28.64
72.96;-1.31;-0.54;-17.64;-15.35;53.69
63.27;1.20;-0.54;-8.71;0.76;41.60
42.36;37.46;1.09;7.30;-8.93;36.70
-6.86;1.20;-0.54;-1.52;1.52;30.27
-26.14;5.99;1.09;3.38;3.16;14.16
-47.04;5.99;-1.31;0.11;-3.27;-10.02
-18.08;1.96;-0.54;2.50;-15.35;-23.74
1.20;-5.34;1.09;0.11;-2.50;-19.71
-0.33;5.99;3.48;5.77;-2.50;-20.47
12.52;4.36;7.51;-0.65;-0.11;2.07
-22.11;-3.70;3.48;-1.52;4.79;-24.50
-26.14;-2.83;11.54;0.11;4.79;-25.26
-4.36;-4.46;-0.54;0.87;-4.14;-47.04
11.76;-11.76;-6.21;-1.52;-1.63;-23.74
-4.36;-18.95;-0.54;13.83;-15.35;-10.02
-4.36;-14.92;-2.94;9.80;30.60;3.70
21.34;-4.46;-0.54;0.87;6.43;14.16
22.98;3.59;3.48;0.11;8.82;15.79
-22.98;4.36;-0.54;-3.16;7.19;29.51
18.19;3.59;1.09;2.50;4.79;30.27
36.70;5.99;-7.84;7.30;4.79;12.52
11.76;6.75;1.09;13.83;-4.14;19.82
4.46;8.39;3.48;11.33;-5.66;10.13
11.76;5.99;16.33;4.14;-15.35;9.37
3.70;19.71;1.85;3.38;-9.69;-26.14
12.52;-18.95;3.48;-2.29;-8.93;-32.56
15.79;1.96;1.09;-8.71;-3.27;-21.24
9.26;3.59;1.09;5.77;0.76;-11.65
-6.86;1.96;1.85;-16.77;0.76;-12.41
-0.33;1.20;-1.31;-40.18;4.79;-5.12
-59.13;-8.49;-3.81;-2.29;4.79;-6.75
-30.17;-2.83;-0.54;-1.52;-9.69;-19.71
4.46;-5.34;-0.54;3.38;-4.14;-21.24
10.13;-9.26;-4.57;0.87;-5.66;-21.24
6.10;-10.89;-8.60;5.77;-0.87;-5.99
-5.23;-14.16;-0.54;8.93;-5.66;-0.33
-27.01;-6.10;-5.34;11.33;3.92;6.10
17.32;-6.86;0.22;16.99;5.55;11.00
53.58;-2.83;1.85;12.20;-2.50;-1.09
-1.20;-1.31;-2.94;-11.22;-4.90;-3.59
-66.43;-19.82;-1.31;-3.92;-6.53;2.07
-107.48;-4.46;14.81;-7.19;-2.50;25.48
-125.23;0.33;-0.54;-14.37;-2.50;38.33
-51.95;10.78;8.28;-19.28;4.79;51.18
104.33;18.08;7.51;-23.30;4.79;53.69
106.83;22.87;8.28;-23.30;1.52;31.91
55.21;-10.89;9.91;11.33;4.79;1.31
6.10;10.78;5.12;10.56;4.79;-26.90
-22.11;1.96;1.09;7.30;4.79;-33.32
-5.23;-2.83;-7.84;1.74;-5.66;-50.31
2.07;-6.86;-0.54;2.50;-7.30;-35.83
-40.62;-6.86;-2.18;4.14;4.79;-6.75
24.61;5.23;0.22;6.53;4.79;2.07
27.01;-6.10;-0.54;6.53;-18.62;-8.39
3.70;-12.52;-2.94;8.17;4.79;0.44
10.89;-6.86;-0.54;6.53;8.82;-24.50
12.52;-6.86;-1.31;0.87;4.79;-3.59
15.79;-6.86;-0.54;0.11;3.92;-5.12
3.70;-1.31;-3.81;0.11;4.79;-10.02
-3.59;-1.31;-2.18;-0.65;-4.14;4.46
-11.65;4.36;0.22;0.87;-2.50;15.79
-6.86;5.99;2.72;3.38;-12.20;20.58
-0.33;7.62;1.85;2.50;-4.14;27.01
18.19;5.99;3.48;-5.55;-25.81;33.54
25.37;13.29;3.48;-0.65;-9.69;28.64
-1.20;5.99;3.48;-2.29;-7.30;17.42
-22.11;5.23;-2.94;2.50;-5.66;1.31
-34.19;3.59;-0.54;0.87;-5.66;26.24
6.10;3.59;5.12;5.77;-2.50;7.73
-5.99;-18.19;1.85;16.23;-2.50;-11.65
-35.07;3.59;-2.18;7.30;-0.11;-29.29
-40.62;-4.46;-2.94;-1.52;-0.11;-32.56
6.86;-3.70;-2.94;-32.13;2.40;-28.53
-5.23;-2.83;-1.31;4.14;-2.50;-60.77
-22.98;-8.49;-0.54;9.80;30.60;-34.96
3.70;-6.86;-0.54;32.34;4.79;-18.08
-5.99;-6.10;-0.54;0.87;-4.14;-12.41
2.07;-4.46;-1.31;-1.52;3.16;-9.15
31.04;1.96;-0.54;-7.19;4.79;12.52
23.85;5.23;1.85;1.74;7.19;31.91
34.30;5.23;5.12;-0.65;30.60;27.88
23.85;0.33;-0.54;0.11;-16.23;30.27
6.10;-4.46;1.09;-0.65;-22.65;1.31
-32.56;4.36;-0.54;-4.68;-16.23;-34.19
-11.65;3.59;0.22;-3.16;-16.99;-40.62
-3.59;9.26;7.51;-3.92;-12.96;-62.40
-4.36;9.26;1.85;-0.65;-6.53;-30.93
-3.59;5.99;1.09;4.14;-0.87;-12.41
-5.99;9.26;1.85;0.87;-2.50;11.00
16.55;32.56;2.72;5.77;7.95;40.73
3.70;1.20;0.22;6.53;4.79;53.69
27.01;-6.10;0.22;4.14;4.79;42.36
11.76;-7.73;22.87;6.53;7.95;-10.02
-10.89;-8.49;-2.94;3.38;6.43;-5.99
-60.00;-14.16;-2.18;-3.92;4.79;-8.39
-59.13;-14.16;-0.54;1.74;3.92;-5.99
-50.31;-7.73;-5.34;-5.55;4.79;27.88
-23.74;-28.64;-1.31;-2.29;4.79;16.55
21.34;1.96;-1.31;-28.10;4.79;23.85
29.40;-4.46;6.75;-2.29;4.79;31.04
24.61;5.23;-9.37;-0.65;-3.27;18.95
15.79;-19.82;2.72;2.50;2.40;6.97
6.86;26.90;3.48;7.30;29.73;6.10
17.32;18.08;0.22;24.28;-0.11;6.10
11.76;8.39;2.72;2.50;-4.14;4.46
-8.39;11.65;1.85;-3.16;-2.50;-1.09
-12.41;1.96;5.12;6.53;-2.50;-15.68
-6.86;1.96;1.09;0.11;-8.93;0.44
16.55;5.99;-5.34;-5.55;-5.66;-23.74
52.82;-2.83;-0.54;-14.37;-10.56;-54.34
14.16;-6.86;-6.21;-3.92;-8.93;-70.46
39.97;1.96;-0.54;15.35;2.40;-33.32
72.09;0.33;-0.54;4.14;4.79;11.00
-5.99;-4.46;-0.54;-21.67;3.92;-13.18
-74.49;-8.49;-23.09;6.53;5.55;-26.14
-52.71;-6.86;-0.54;8.93;30.60;2.07
16.55;5.99;1.09;9.80;8.82;23.85
9.26;-1.31;-0.54;1.74;3.16;30.27
15.79;-6.10;-6.21;-2.29;0.76;28.64
-1.96;3.59;-6.97;-0.65;0.76;28.64
-12.41;-4.46;-1.31;-17.64;-4.14;24.61
-1.20;1.20;-2.94;-27.33;-2.50;20.58
-0.33;-5.34;-22.32;0.87;2.40;14.92
3.70;6.75;0.22;-1.52;0.76;12.52
-10.89;6.75;-1.31;-0.65;-3.27;6.97
-17.32;5.99;0.22;-3.16;-8.17;8.49
-17.32;5.99;-0.54;-14.37;-4.90;6.97
-16.44;4.36;-0.54;-1.52;-6.53;6.97
5.23;3.59;-0.54;0.87;-4.14;-32.56
31.04;1.20;-0.54;5.77;-9.69;-68.82
39.97;-4.46;-0.54;-5.55;-9.69;-79.28
29.40;-2.83;-0.54;1.74;0.76;-51.07
-18.95;23.74;4.25;4.14;20.91;-11.65
33.43;2.72;-25.48;0.87;6.43;0.44
43.12;-2.83;-0.54;-1.52;4.79;18.95
36.70;-5.34;-2.18;-2.29;4.79;41.60
-32.56;-14.16;-2.18;-2.29;-2.50;57.72
-136.56;-8.49;-4.57;-5.55;3.92;56.08
-132.53;-6.86;1.85;0.11;6.43;36.70
-13.29;-2.83;-0.54;4.14;4.79;25.48
9.26;0.33;3.48;2.50;7.95;20.58
17.32;5.99;1.09;-1.52;10.45;27.01
25.37;4.36;-1.31;1.74;0.76;12.52
29.40;5.99;-0.54;11.33;-0.11;1.31
32.67;10.02;-0.54;6.53;-2.50;-20.47
-0.33;8.39;1.09;4.14;-2.50;-29.29
13.29;8.39;8.28;4.14;-0.87;-23.74
16.55;15.68;3.48;3.38;-0.11;-14.05
12.52;1.96;8.28;5.77;-2.50;-18.84
2.07;5.23;-0.54;-1.52;-4.14;-10.78
-11.65;-4.46;-0.54;-19.28;-2.50;-2.72
-10.02;-35.07;-2.94;-1.52;-8.93;-23.74
12.52;-10.13;-4.57;-3.92;-7.30;-23.74
2.07;-9.26;-1.31;0.87;-2.50;-45.41
-27.01;-6.86;0.22;-6.32;4.79;-36.59
-22.11;-14.16;-2.18;-6.32;3.92;-29.29
-26.14;-8.49;-18.30;8.93;4.79;-22.11
17.32;-8.49;-23.96;7.30;-0.11;-21.24
59.24;-3.70;-13.39;10.56;6.43;27.01
59.24;6.75;-10.24;12.20;8.82;39.97
29.40;14.05;-11.87;3.38;-4.14;27.88
-10.89;9.26;-5.34;6.53;-8.17;51.18
-32.56;14.05;41.38;-3.16;-2.50;6.10
-18.08;5.99;65.56;-6.32;1.52;-11.65
-22.11;-4.46;25.26;-18.40;-8.17;-11.65
-10.89;3.59;5.12;-14.37;-7.30;19.82
5.23;5.23;-1.31;-5.55;3.16;27.01
17.32;2.72;-0.54;10.56;2.40;23.85
-16.44;-1.31;-7.84;11.33;4.79;19.82
-11.65;5.99;-5.34;11.33;3.92;2.94
-3.59;-4.46;-7.84;12.96;4.79;-20.47
10.89;-6.86;-30.38;0.87;4.79;-5.12
9.26;-6.86;-6.21;0.87;2.40;-22.87
17.32;-5.34;-0.54;-2.29;4.79;-10.78
9.26;-10.89;-8.60;-12.74;4.79;-12.41
-5.23;-10.89;-5.34;-8.71;7.19;-1.09
-5.23;-4.46;-11.87;2.50;7.19;10.13
-43.02;-6.86;-0.54;4.14;4.79;7.73
-38.22;4.36;-0.54;5.77;6.43;14.16
-18.08;2.72;-2.94;4.90;4.79;3.70
3.70;4.36;-0.54;0.87;2.40;-13.18
-0.33;2.72;-0.54;0.87;-0.11;-23.74
2.07;5.23;0.22;-0.65;-4.90;-11.65
10.89;6.75;-15.03;5.77;-8.17;27.88
49.55;11.65;5.12;2.50;-4.14;-12.41
34.30;9.26;4.25;-0.65;-4.90;2.07
5.23;5.99;-0.54;0.11;-12.96;9.37
1.20;0.33;1.85;5.77;-21.02;14.92
3.70;5.99;1.85;0.11;3.16;14.16
-2.83;4.36;-2.18;4.14;2.40;-10.02
-21.34;-4.46;-9.37;2.50;4.79;-36.59
-27.01;-2.07;16.33;4.14;7.95;-10.02
-43.02;-2.07;1.09;0.11;-5.66;-1.96
-25.37;-10.89;-3.81;6.53;4.79;-3.59
-19.71;-11.76;-15.03;-0.65;4.79;3.70
-24.50;-12.52;-3.81;2.50;3.16;-3.59
5.23;-7.73;-21.45;0.11;-0.11;-5.99
18.95;-6.86;-0.54;-2.29;-8.93;1.31
3.70;-2.07;1.09;-5.55;4.79;6.97
-1.96;1.96;-0.54;-0.65;1.52;15.79
-6.86;-6.86;-0.54;0.11;6.43;-3.59
6.10;1.96;-11.00;3.38;-5.66;27.88
25.37;-2.07;-0.54;4.14;-4.14;2.07
29.40;5.99;-0.54;4.14;7.19;2.07
29.40;14.05;6.75;6.53;4.79;2.07
14.16;10.02;5.12;-1.52;-3.27;-18.08
2.83;10.02;-17.42;6.53;1.52;-23.74
6.86;6.75;-11.00;-1.52;0.76;-23.74
6.10;5.99;1.85;0.87;2.40;-11.65
-1.20;5.23;0.22;-2.29;-15.35;19.82
-34.19;-6.86;-1.31;0.87;3.92;43.12
-3.59;-2.83;-2.94;4.14;3.92;15.79
17.32;-2.83;-0.54;-7.19;-0.87;-12.41
-13.29;-8.49;0.22;-2.29;1.52;-30.17
-31.04;-5.34;1.85;-1.52;-4.90;-25.26
-14.92;-10.89;-0.54;0.87;-7.30;-34.96
-6.86;-27.01;-3.81;3.38;-8.17;-19.71
2.07;-7.73;-2.18;6.53;-4.90;2.07
-3.59;-6.10;0.22;1.74;-2.50;18.95
-14.92;-2.07;-2.94;6.53;-1.63;18.95
18.19;1.96;-2.18;-23.30;-20.26;55.21
3.70;1.96;-1.31;-4.68;-0.11;44.00
-0.33;-21.34;1.85;-22.43;-4.14;23.85
-10.02;5.99;-0.54;-25.70;-5.66;-20.47
-33.43;8.39;-0.54;-14.37;-5.66;-86.58
-20.47;5.23;5.88;-1.52;-12.20;-80.91
2.83;17.32;4.25;0.87;-2.50;-61.53
-38.22;-5.34;0.22;12.96;-14.59;-44.65
-6.86;5.99;1.09;1.74;9.58;2.07
64.90;5.99;1.85;7.30;7.95;26.24
76.12;3.59;5.12;4.14;-2.50;72.20
125.34;5.99;-0.54;10.56;12.85;64.14
18.95;-3.70;-8.60;7.30;12.85;65.78
-10.89;1.20;1.85;8.17;16.88;36.70
-17.32;10.78;-1.31;7.30;3.92;17.42
8.49;-7.73;-0.54;1.74;3.16;30.27
29.40;-4.46;-3.81;-2.29;-2.50;44.76
24.61;30.93;-2.18;-0.65;-0.87;39.97
-27.01;-1.31;-2.18;-2.29;7.95;-22.11
-49.55;13.29;8.28;3.38;-3.27;-31.80
-29.40;2.72;0.22;0.11;-5.66;-18.08
-54.34;-7.73;-26.35;-5.55;-7.30;-21.24
-1.20;2.72;2.72;-3.16;-16.99;-5.12
29.40;1.20;11.54;-1.52;-0.11;10.13
20.58;15.68;9.91;5.77;2.40;22.98
-9.26;8.39;11.54;11.33;4.79;35.07
3.70;13.29;7.51;7.30;5.55;14.16
6.10;-5.34;-4.57;2.50;3.92;-14.81
-76.12;-2.07;-10.24;4.14;-0.11;-19.71
-26.14;5.99;1.85;-0.65;-2.50;-29.29
-8.39;-2.07;-30.38;-2.29;-4.90;-46.28
-16.44;3.59;-22.32;-4.68;-1.63;-24.50
11.76;-4.46;-13.39;1.74;4.79;-18.84
3.70;-9.26;-18.30;6.53;4.79;-23.74
3.70;-6.86;-14.27;-1.52;10.45;-18.08
1.20;0.33;43.78;7.30;4.79;1.31
-35.07;-6.86;54.99;10.56;4.79;13.39
-18.95;-10.89;24.39;3.38;10.45;7.73
-22.98;-7.73;1.85;-3.16;4.79;15.79
-27.01;-4.46;0.22;0.87;3.92;18.19
-22.11;-4.46;-0.54;-3.16;5.55;33.54
-14.05;1.96;-7.84;-5.55;-0.87;-5.12
22.22;3.59;-16.66;-1.52;-19.38;2.94
15.79;5.99;-2.94;-3.92;-12.96;-0.33
1.20;7.62;-2.18;0.87;-7.30;17.42
14.16;5.99;1.85;13.83;-11.33;4.46
3.70;14.81;-12.63;9.80;-3.27;-14.81
10.89;6.75;3.48;11.33;4.79;-1.09
22.22;14.05;8.28;2.50;3.92;6.10
12.52;7.62;2.72;-2.29;3.92;-7.62
-18.95;-3.70;1.09;-7.19;2.40;-40.62
-22.11;22.87;-0.54;8.93;-3.27;-27.77
15.79;-4.46;-0.54;3.38;3.16;-18.08
78.63;-2.07;1.09;10.56;14.48;3.70
51.18;-8.49;-2.18;3.38;4.79;-1.09
-3.59;-6.86;-28.75;4.14;7.19;18.95
-22.11;-10.13;-0.54;0.87;8.82;0.44
-31.04;-6.86;-3.81;26.68;0.76;0.44
-5.23;-5.34;1.09;0.11;-0.11;16.55
16.55;-6.10;-26.35;-1.52;2.40;39.10
20.58;3.59;1.09;-0.65;0.76;27.88
17.32;5.99;-0.54;0.11;-4.14;18.19
-14.92;5.99;-0.54;4.14;-3.27;11.00
-74.49;-17.32;-0.54;-11.98;-4.14;6.10
-48.68;1.96;1.09;-5.55;-9.69;3.70
-61.64;5.99;-0.54;10.56;-6.53;-11.65
-23.74;3.59;3.48;7.30;3.92;-10.02
17.32;1.96;1.85;6.53;-5.66;-1.09
16.55;-1.31;-2.18;-2.29;-8.93;0.44
-14.05;-2.07;-1.31;26.68;3.16;-0.33
59.24;5.99;4.25;-0.65;-4.90;2.07
72.96;3.59;-0.54;-11.98;4.79;-5.99
40.73;1.96;14.81;-11.98;4.79;-40.62
17.32;-1.31;-21.45;-3.16;4.79;-51.95
-13.29;-6.10;0.22;2.50;6.43;-37.35
-83.31;-5.34;-0.54;5.77;8.82;-12.41
-37.46;-6.86;-0.54;2.50;4.79;-10.02
-10.89;-14.16;-4.57;-6.32;0.76;7.73
-21.34;-19.82;-4.57;-0.65;0.76;40.73
-26.14;-7.73;-1.31;3.38;3.16;27.88
2.83;1.96;-25.48;11.33;2.40;27.01
-19.71;-2.07;0.22;5.77;0.76;20.58
-23.74;5.99;2.72;6.53;7.19;2.94
-39.86;3.59;3.48;-1.52;-4.90;-12.41
-22.11;5.23;-0.54;-1.52;-6.53;-38.22
65.67;7.62;-0.54;-13.61;0.76;-79.28
118.05;30.93;1.09;-38.55;-7.30;-67.19
71.33;1.96;-0.54;-34.52;-26.68;-33.32
29.40;2.72;3.48;37.13;5.55;31.04
26.24;8.39;1.85;10.56;10.45;81.02
43.12;-14.92;10.78;-3.92;16.01;117.29
-47.92;1.96;5.12;41.16;6.43;103.56
-93.87;-6.86;17.97;3.38;6.43;53.69
-99.43;-8.49;-2.94;-0.65;4.79;-15.68
-52.71;-14.92;-3.81;0.11;16.88;-40.62
38.33;-3.70;-0.54;4.14;-12.20;-40.62
56.85;-2.07;-13.39;0.87;-3.27;2.07
16.55;-7.73;0.22;-14.37;0.76;6.10
16.55;-6.86;-0.54;-14.37;3.92;38.33
-6.86;-6.86;-0.54;-13.61;-0.11;35.07
-15.68;-7.73;-0.54;-9.58;-2.50;-1.09
13.29;5.23;-0.54;-22.43;-0.11;-11.65
3.70;10.02;1.09;11.33;-0.87;-12.41
5.23;10.02;1.85;-19.28;3.16;-14.05
9.26;7.62;1.09;0.87;1.52;-6.75
17.32;8.39;-0.54;3.38;4.79;2.07
55.21;5.99;0.22;1.74;4.79;-12.41
68.06;1.20;-1.31;3.38;5.55;-22.87
47.92;1.20;-0.54;-0.65;-2.50;-5.99
34.30;-1.31;-7.84;-8.71;-6.53;-22.11
-3.59;-10.13;-1.31;4.14;2.40;-28.53
-71.22;1.20;0.22;16.23;-3.27;-34.96
-35.07;-7.73;-0.54;3.38;-17.75;-19.71
-50.31;3.59;21.24;4.14;-11.33;-8.39
-108.36;-6.10;2.72;2.50;-18.62;-1.96
-4.36;-24.61;-4.57;3.38;0.76;39.97
8.49;5.99;-0.54;9.80;10.45;44.76
-10.89;3.59;7.51;8.93;7.95;35.94
30.27;-6.10;3.48;7.30;4.79;26.24
17.32;-1.31;-1.31;11.33;0.76;14.16
49.55;-2.07;1.09;0.87;7.19;-6.75
30.27;-1.31;1.85;-5.55;4.79;-24.50
7.73;5.99;3.48;-3.92;2.40;-29.29
3.70;5.99;-0.54;-3.16;2.40;-48.68
-16.44;17.32;2.72;7.30;27.33;2.07
3.70;10.02;3.48;11.33;-0.87;-64.80
-1.20;5.99;-0.54;9.80;-11.33;-105.09
-14.05;7.62;2.72;-2.29;-9.69;-90.60
-0.33;5.23;-0.54;-7.19;-12.96;-53.47
6.10;-28.64;-0.54;-14.37;-12.20;-23.74
-16.44;-17.32;-9.37;-14.37;-6.53;20.58
6.10;-5.34;1.09;-16.77;-5.66;79.39
52.82;-27.88;-6.21;-32.89;7.95;139.83
-5.23;1.96;-24.72;-19.28;4.79;131.01
-68.06;-7.73;-26.35;-22.43;3.16;56.85
16.55;31.80;-26.35;8.93;19.28;56.08
14.16;62.40;26.90;25.05;30.60;66.54
-58.37;166.29;56.63;13.83;20.91;18.95
-35.83;-27.01;22.00;11.33;10.45;-26.14
-18.08;-85.05;-4.57;7.30;9.58;-38.22
-8.39;-201.03;9.91;10.56;5.55;-28.53
-12.41;-101.93;3.48;6.53;3.92;-25.26
1.20;15.68;-1.31;1.74;-8.93;-26.14
2.07;22.87;1.09;-0.65;-15.35;-22.11
3.70;30.93;-3.81;5.77;-12.20;-13.18
-1.20;1.96;-2.94;-18.40;-16.99;-15.68
38.33;-84.29;0.22;-13.61;-12.20;-34.19
23.85;-15.79;4.25;0.11;0.76;-14.81
12.52;19.71;-0.54;11.33;-5.66;-23.74
2.83;18.08;-22.32;11.33;-7.30;-23.74
3.70;14.05;-2.94;9.80;4.79;-22.11
-6.86;7.62;4.25;-1.52;3.16;-16.44
-13.29;6.75;-9.37;-9.58;-0.11;-10.02
-10.02;-1.31;25.26;-16.77;-3.27;4.46
3.70;1.20;-5.34;-10.35;3.92;7.73
-42.25;1.96;-8.60;-24.83;2.40;1.31
-27.77;-6.10;-6.21;-10.35;4.79;-14.81
-101.06;-5.34;-0.54;-3.16;5.55;-22.11
-110.75;-3.70;-0.54;4.14;2.40;-30.17
-27.77;-1.31;0.22;11.33;-4.14;-35.83
55.97;18.08;5.12;14.59;2.40;12.52
147.01;22.87;5.12;11.33;5.55;39.10
135.80;27.77;11.54;11.33;6.43;41.60
-33.43;10.78;-0.54;11.33;-2.50;31.04
-36.59;14.05;6.75;9.80;-33.87;22.98
-22.11;7.62;3.48;1.74;-6.53;23.85
14.92;-6.10;4.25;0.11;-3.27;30.27
68.06;4.36;-0.54;-1.52;4.79;27.01
20.58;1.20;-25.48;-0.65;-2.50;11.00
6.10;-2.07;-1.31;-7.19;2.40;-22.11
-22.11;-3.70;1.09;-0.65;-0.11;-28.53
-27.01;-6.86;-7.84;-1.52;2.40;-18.08
-16.44;4.36;-1.31;-0.65;4.79;-5.99
-16.44;2.72;-0.54;-1.52;7.19;0.44
-47.92;0.33;-2.18;-8.71;6.43;-12.41
-48.68;-10.13;-0.54;0.11;-19.38;-15.68
-0.33;-8.49;-4.57;0.87;9.58;-10.78
3.70;-8.49;-11.87;-1.52;4.79;-7.62
90.71;1.20;-0.54;-6.32;0.76;2.07
170.43;8.39;-0.54;-3.92;-8.17;-0.33
7.73;4.36;-0.54;-3.92;-21.78;-35.83
-0.33;33.43;1.85;-0.65;-29.84;-86.58
21.34;14.81;1.85;-0.65;-10.56;-28.53
-68.06;5.99;-0.54;0.11;-0.87;18.95
-74.49;-2.83;5.12;11.33;4.79;61.75
-134.06;-2.07;6.75;11.33;13.61;93.11
-18.08;7.62;4.25;11.33;13.61;130.14
-18.95;-2.07;19.60;7.30;9.58;139.07
28.64;-1.31;11.54;-0.65;7.19;85.05
18.19;-6.86;-18.30;-2.29;3.92;11.00
37.46;5.99;-0.54;-4.68;0.76;-38.99
59.24;-1.31;-18.30;2.50;-2.50;-53.47
41.49;-27.88;-1.31;4.90;-0.11;-60.00
3.70;-9.26;-0.54;-0.65;3.16;-56.74
-13.29;-6.10;-0.54;-3.92;3.92;-56.74
-0.33;-17.32;0.22;-20.04;-0.11;-51.07
15.79;-6.86;-0.54;-14.37;-0.11;-45.41
64.03;-4.46;-0.54;9.80;4.79;-32.56
80.15;0.33;-0.54;21.89;-0.87;-10.78
-25.37;-6.10;-1.31;6.53;-3.27;25.48
-53.58;2.72;1.85;5.77;4.79;52.82
-47.04;2.72;0.22;7.30;4.79;58.48
-29.40;3.59;1.85;0.87;13.61;-1.09
2.83;10.78;3.48;-9.58;7.19;0.44
29.40;-18.95;-0.54;-15.25;4.79;-21.24
27.01;20.47;3.48;-25.70;4.79;-43.89
2.83;23.74;7.51;-6.32;3.92;-38.22
-23.74;-11.76;5.12;6.53;0.76;7.73
-37.46;-3.70;0.22;4.14;-3.27;31.91
-43.89;-5.34;-1.31;0.11;-3.27;28.64
-47.92;-10.13;-0.54;2.50;-11.33;-1.09
-23.74;-18.19;-2.94;0.87;-23.41;-49.44
-17.32;-5.34;1.85;8.93;-12.96;-27.77
-6.86;-4.46;-0.54;37.13;2.40;-9.15
44.00;4.36;0.22;2.50;4.79;-5.99
81.78;0.33;-5.34;0.11;0.76;-8.39
33.43;16.44;-4.57;-1.52;-0.87;6.97
11.76;-8.49;-2.94;1.74;4.79;18.95
-25.37;-4.46;-2.18;4.14;2.40;14.16
3.70;-4.46;-4.57;-0.65;3.92;33.54
0.44;-1.31;-0.54;0.87;4.79;70.57
-10.02;2.72;-8.60;-3.16;10.45;105.20
13.29;10.02;-0.54;2.50;4.79;92.35
47.15;13.29;14.81;0.87;8.82;105.96
30.27;6.75;-12.63;-3.16;3.92;91.48
47.15;5.99;0.22;4.14;13.61;87.45
39.97;7.62;3.48;8.93;13.61;-5.12
-5.23;1.96;0.22;0.87;-9.69;-105.85
-35.07;3.59;0.22;-3.92;-35.50;-125.23
-36.59;1.20;-0.54;-7.19;-32.34;-176.74
-31.04;-6.86;1.85;-3.92;-22.65;-152.57
-22.11;-7.73;16.33;-1.52;-5.66;-100.19
14.92;-6.10;-15.03;5.77;-9.69;-73.62
18.95;-6.86;-1.31;-10.35;-18.62;-48.68
29.40;-10.13;-4.57;-4.68;-15.35;-13.18
31.04;-9.26;-2.94;-1.52;0.76;-25.26
-26.14;-8.49;-0.54;6.53;13.61;0.44
-39.86;5.23;1.09;21.02;16.01;-2.72
-46.28;-11.76;-0.54;5.77;7.19;-13.18
-35.83;-8.49;-1.31;0.11;4.79;2.94
5.23;-2.83;-0.54;-1.52;8.82;27.88
-68.82;5.23;-0.54;3.38;4.79;53.69
-60.77;0.33;-0.54;-3.16;-0.87;81.02
55.21;-28.64;-0.54;-4.68;-4.90;82.66
70.57;5.23;-2.94;-2.29;-6.53;52.82
47.92;-9.26;1.85;7.30;2.40;7.73
85.81;28.53;-7.84;-6.32;4.79;-18.84
-10.89;9.26;-5.34;11.33;-2.50;-16.44
72.96;31.80;-1.31;7.30;31.36;2.07
76.12;14.81;-10.24;33.11;4.79;22.22
-3.59;0.33;-17.42;-6.32;2.40;31.04
-10.89;-2.07;7.51;-6.32;4.79;59.24
5.23;-7.73;64.69;-1.52;5.55;75.36
4.46;-12.52;27.66;0.87;4.79;41.60
-31.04;-14.92;5.12;-1.52;3.92;-9.15
-93.87;-7.73;-2.18;3.38;6.43;-32.56
-77.75;-12.52;-3.81;0.87;4.79;-29.29
-13.29;-14.16;-5.34;-9.58;1.52;-23.74
-10.02;-9.26;-4.57;4.14;-0.11;-2.72
23.85;-3.70;-3.81;-2.29;4.79;2.94
3.70;4.36;-5.34;2.50;23.30;4.46
-22.11;5.99;1.85;1.74;8.82;11.76
-4.36;4.36;-0.54;-31.36;5.55;7.73
-9.26;5.99;-0.54;2.50;3.92;10.13
12.52;11.65;-19.06;-3.16;-0.87;-13.18
15.79;10.02;-0.54;-10.35;-5.66;-8.39
29.40;8.39;-0.54;-3.92;4.79;-23.74
40.73;14.05;1.85;-3.92;-12.20;-51.95
9.26;5.99;1.85;-2.29;-31.47;-66.43
2.07;1.20;-6.21;-5.55;-21.02;-97.03
43.12;5.99;-0.54;-5.55;-18.62;-103.45
-24.50;3.59;1.09;34.74;5.55;-64.03
-21.34;-9.26;-0.54;0.11;7.19;-30.93
-30.17;-11.76;-1.31;-3.16;-6.53;4.46
-9.26;-12.52;-2.18;-0.65;5.55;97.14
-22.11;-10.89;-3.81;8.17;10.45;147.89
-56.74;-45.52;-5.34;0.87;10.45;131.77
-59.13;1.20;0.22;3.38;10.45;36.70
-32.56;8.39;0.22;0.11;3.92;-6.75
-7.62;-4.46;-1.31;-3.92;0.76;-18.84
-1.96;-2.83;-1.31;5.77;3.92;-5.12
3.70;26.14;-18.30;22.65;0.76;-7.62
55.21;13.29;-2.18;0.11;4.79;2.07
7.73;10.02;-1.31;-1.52;4.79;14.92
-4.36;1.96;3.48;-3.92;3.92;6.10
-8.39;8.39;10.78;21.89;8.82;-7.62
4.46;5.99;10.78;-1.52;-21.02;-30.93
-27.01;1.20;20.36;3.38;3.16;-5.12
2.07;7.62;12.31;4.90;0.76;-24.50
19.82;7.62;13.18;-8.71;3.92;1.31
52.82;7.62;5.12;-14.37;-4.90;2.07
22.22;-21.34;-0.54;-5.55;-16.23;-18.84
2.07;-4.46;-0.54;-2.29;-17.75;-16.44
-10.02;-19.82;-0.54;-5.55;-4.14;-28.53
-5.23;-2.83;-0.54;5.77;5.55;-43.89
-9.26;-18.95;-0.54;3.38;-3.27;-58.37
-31.04;-14.16;-4.57;5.77;-0.87;-53.47
-31.04;-14.16;-0.54;3.38;-2.50;-24.50
-39.10;-9.26;-7.84;4.14;-6.53;9.37
22.22;-7.73;-3.81;8.93;-5.66;74.60
82.66;5.99;-2.94;0.87;6.43;103.56
81.02;21.34;-1.31;19.38;3.92;114.02
12.52;18.84;0.22;10.56;15.25;126.11
-14.92;5.99;0.22;5.77;17.64;113.26
-47.92;38.99;1.85;6.53;13.61;81.89
-46.28;5.99;14.81;-0.65;20.04;55.21
-51.95;10.02;25.26;-0.65;21.67;11.00
-43.89;5.23;22.87;4.14;29.73;-56.74
30.27;10.02;12.31;4.14;23.30;-126.87
89.84;1.96;1.85;-3.16;-5.66;-152.57
93.87;-7.73;-15.03;-14.37;-57.28;-217.91
18.19;-14.92;-23.96;23.41;-65.34;-166.29
-9.26;-12.52;-2.94;-0.65;-72.53;-125.23
-8.39;-7.73;-26.35;-5.55;-45.96;-49.44
14.16;-8.49;-16.66;2.50;-4.14;19.82
-21.34;-12.52;-11.00;8.93;10.45;16.55
-12.41;-6.86;-10.24;0.87;11.98;34.30
26.24;-6.10;-2.18;-0.65;14.48;23.85
-8.39;-4.46;-14.27;-1.52;12.85;2.07
7.73;-6.86;0.22;-7.19;0.76;-5.12
-11.65;-4.46;1.09;0.87;0.76;-0.33
-47.04;-2.07;1.85;-6.32;-0.11;24.61
-60.00;1.96;-0.54;-5.55;1.52;22.98
14.92;4.36;8.28;26.68;29.73;53.69
81.02;25.37;15.57;10.56;22.54;101.17
105.96;22.87;12.31;-1.52;15.25;53.69
34.30;10.02;9.91;3.38;15.25;26.24
-76.12;11.65;11.54;6.53;9.58;6.97
-66.43;7.62;5.12;8.93;5.55;21.45
-55.97;1.20;12.31;8.93;8.82;27.88
1.20;-1.31;4.25;7.30;5.55;6.97
8.49;-5.34;-0.54;0.87;4.79;2.07
-43.89;11.65;-5.34;-1.52;4.79;2.07
2.07;-9.26;-15.03;-7.19;0.76;10.13
-0.33;-12.52;-5.34;-2.29;-0.87;-22.11
5.23;10.78;-9.37;-3.16;-0.11;3.70
9.26;-3.70;-0.54;2.50;0.76;-2.72
37.46;-5.34;-0.54;5.77;2.40;22.22
38.33;-6.86;-2.18;0.87;-5.66;16.55
8.49;-6.86;-0.54;-0.65;-13.72;18.95
-36.59;-2.83;-0.54;0.11;-0.11;43.12
-97.90;-4.46;-5.34;-16.01;2.40;30.27
-75.25;5.23;1.09;0.11;4.79;5.34
-24.50;8.39;0.22;-27.33;0.76;-5.99
44.76;6.75;2.72;3.38;0.76;-22.11
27.01;14.05;4.25;13.83;-9.69;-46.28
34.30;15.68;0.22;3.38;-16.23;-47.04
60.88;6.75;5.12;-9.58;-4.14;-22.87
55.21;5.99;7.51;0.11;-4.90;-30.93
3.70;-18.95;0.22;-37.79;-8.93;-51.95
-13.29;-2.07;0.22;-1.52;-0.87;-45.41
-18.08;-9.26;-0.54;-1.52;-2.50;-32.56
2.83;-6.86;-0.54;-3.16;3.92;-28.53
16.55;-4.46;-3.81;-3.16;5.55;7.73
11.76;10.78;-1.31;-2.29;6.43;20.58
-15.68;-6.10;1.09;-30.49;4.79;37.57
-22.11;-9.26;-0.54;0.87;7.95;44.76
8.49;-6.86;-1.31;-1.52;3.16;7.73
7.73;-3.70;20.36;0.87;0.76;4.46
3.70;-7.73;-1.31;-7.19;-3.27;22.22
1.20;-2.83;-1.31;-0.65;4.79;40.73
-21.34;18.84;0.22;6.53;7.19;25.48
-24.50;5.99;1.85;9.80;15.25;14.92
-5.99;16.44;7.51;12.20;17.64;31.91
10.89;-19.82;9.15;-0.65;15.25;38.33
14.16;9.26;7.51;4.14;11.98;27.88
16.55;3.59;-0.54;-1.52;5.55;18.95
-6.86;5.99;-14.27;0.87;-8.17;-23.74
-18.95;5.23;1.85;-2.29;-9.69;-23.74
-11.65;1.96;1.09;-2.29;-13.72;-22.11
-9.26;1.96;-6.21;-5.55;-7.30;-49.44
-10.89;-6.10;-0.54;-4.68;-6.53;-74.49
3.70;-4.46;1.09;0.11;-8.93;-49.44
33.43;-1.31;8.28;0.87;-16.23;-15.68
53.58;2.72;-0.54;-1.52;-17.75;-75.25
-3.59;-8.49;-0.54;-3.16;-6.53;-62.40
-31.04;-10.13;-0.54;-0.65;2.40;-16.44
-24.50;-7.73;-1.31;4.14;4.79;-49.44
-45.52;-2.83;-0.54;-5.55;1.52;-46.28
10.89;4.36;-0.54;-0.65;0.76;-60.00
29.40;5.99;-0.54;1.74;-0.11;-49.44
30.27;5.99;1.09;-0.65;0.76;-12.41
9.26;10.02;0.22;-0.65;-0.11;52.82
2.07;5.23;5.12;9.80;10.45;138.19
-16.44;6.75;3.48;10.56;4.79;185.02
-21.34;6.75;2.72;5.77;4.79;143.09
-4.36;5.99;1.09;2.50;4.79;128.61
2.07;5.99;-0.54;-1.52;3.92;105.20
-7.62;-5.34;-4.57;-0.65;4.79;11.00
-8.39;-2.07;0.22;-1.52;3.92;-28.53
-10.89;-2.83;4.25;-1.52;2.40;-26.90
-19.71;0.33;0.22;-1.52;1.52;-28.53
-5.23;-6.10;5.12;-2.29;6.43;-23.74
29.40;2.72;1.09;-3.16;8.82;-20.47
9.26;-8.49;-0.54;-4.68;11.98;-41.38
6.10;-4.46;-30.38;-2.29;7.95;-51.95
-0.33;-6.86;-0.54;-3.92;3.92;-36.59
-5.23;-2.07;-0.54;-3.92;-0.87;-22.11
-11.65;-7.73;-1.31;-0.65;4.79;-12.41
2.83;-1.31;-0.54;-12.74;-1.63;-1.96
2.83;-1.31;-1.31;-2.29;-3.27;-10.78
1.20;1.96;-0.54;-3.16;4.79;-23.74
6.10;5.99;0.22;-1.52;-7.30;-35.83
15.79;8.39;-2.94;-0.65;-9.69;-47.04
28.64;8.39;0.22;-1.52;-21.78;-34.19
43.12;16.44;4.25;-2.29;-20.26;-14.81
28.64;11.65;0.22;-5.55;-12.96;10.13
-1.20;7.62;9.15;-0.65;-7.30;28.64
-34.19;8.39;1.09;3.38;3.92;52.05
-76.12;4.36;0.22;12.20;25.70;97.14
-46.28;5.23;-0.54;16.99;16.88;77.86
-3.59;-6.10;-11.00;13.83;17.64;14.16
-14.05;-14.16;-30.38;6.53;5.55;-13.18
-4.36;-6.10;-13.39;2.50;4.79;-32.56
3.70;-6.10;-17.42;0.11;6.43;-22.87
21.34;-6.86;-12.63;-6.32;4.79;-23.74
22.22;-5.34;50.97;12.20;2.40;-14.81
22.22;-2.83;42.14;-11.98;0.76;-14.81
7.73;-2.83;-2.94;-15.25;-0.11;-6.75
-18.08;-1.31;-13.39;22.65;-2.50;-5.99
-19.71;0.33;-11.00;-9.58;2.40;7.73
-22.11;26.90;-0.54;-2.29;0.76;35.07
-13.29;1.20;1.09;0.11;4.79;46.39
-10.02;-1.31;6.75;2.50;4.79;48.02
-8.39;4.36;8.28;3.38;11.98;11.00
-1.20;6.75;10.78;0.87;-9.69;-11.65
31.91;10.02;12.31;7.30;-16.99;-35.83
56.85;8.39;8.28;23.41;-0.11;-69.59
16.55;14.81;20.36;5.77;-10.56;-78.52
-14.92;-9.26;1.85;12.20;-16.99;-58.37
15.79;0.33;-2.94;-4.68;-8.93;-38.99
36.70;-6.86;-0.54;7.30;-2.50;-5.99
11.76;-12.52;11.54;-1.52;-18.62;-27.77
-16.44;-6.86;0.22;-1.52;4.79;-1.96
-76.88;-17.32;-1.31;2.50;5.55;-18.08
-88.97;-5.34;-1.31;-0.65;15.25;2.07
-55.97;-6.86;-2.94;4.14;4.79;30.27
7.73;-0.44;-2.94;0.11;18.51;62.51
59.24;-6.10;-3.81;0.87;3.92;79.39
120.44;3.59;-0.54;16.99;4.79;88.32
92.24;1.96;-2.18;-3.16;2.40;79.39
28.64;-7.73;-6.21;-37.79;-9.69;14.92
15.79;1.96;-7.84;-8.71;-19.38;-19.71
-35.07;1.96;-2.18;5.77;-3.27;-5.12
-45.52;4.36;1.85;7.30;8.82;28.64
-45.52;20.47;25.26;8.93;21.67;35.07
38.33;16.44;19.60;8.17;18.51;63.27
4.46;14.81;7.51;6.53;12.85;40.73
-32.56;1.20;4.25;0.87;5.55;14.16
-14.92;6.75;-2.94;-0.65;-8.93;-41.38
2.83;-2.83;-2.94;-1.52;-6.53;-76.12
-10.89;-8.49;-0.54;-33.76;-13.72;-75.25
-1.20;1.96;-0.54;-27.33;-16.99;-102.69
-4.36;-7.73;-0.54;4.14;-16.99;-96.16
-10.89;-10.89;-4.57;-2.29;-9.69;-80.04
-9.26;-14.16;-4.57;-2.29;-9.69;-49.44
-19.71;-7.73;-5.34;-0.65;-0.87;-21.24
-17.32;-15.79;-5.34;-0.65;3.92;2.94
-16.44;-14.16;-0.54;-1.52;-0.87;19.82
-8.39;-2.83;9.15;0.11;3.92;22.22
3.70;-19.82;0.22;7.30;4.79;43.12
1.20;4.36;4.25;-1.52;3.16;56.08
10.89;13.29;4.25;-1.52;4.79;96.38
16.55;4.36;1.85;-1.52;0.76;50.42
21.34;3.59;5.12;-13.61;-0.11;27.88
16.55;5.99;1.09;-22.43;1.52;3.70
3.70;34.19;0.22;0.11;-18.62;6.10
-11.65;5.99;3.48;2.50;-0.11;2.07
-25.37;5.99;12.31;-3.16;-3.27;-9.15
-9.26;-2.83;14.81;0.11;3.92;-19.71
30.27;5.99;4.25;0.87;3.92;6.97
29.40;-4.46;-0.54;2.50;6.43;39.10
14.92;3.59;1.85;0.87;14.48;41.60
2.07;-2.07;21.24;3.38;17.64;24.61
-13.29;-11.76;1.85;2.50;23.30;-6.75
-13.29;-7.73;-1.31;0.87;15.25;-23.74
-20.47;-10.89;-0.54;25.05;9.58;-26.14
-19.71;-8.49;-8.60;-7.19;3.92;-38.22
-35.07;-9.26;-7.84;-5.55;-21.02;-48.68
-44.65;-9.26;-1.31;-5.55;-22.65;-27.77
-22.11;5.23;-0.54;-7.19;-29.84;-34.19
18.19;5.23;1.85;-1.52;-25.05;6.10
49.55;5.99;2.72;0.87;-2.50;12.52
2.83;7.62;-12.63;2.50;0.76;12.52
27.01;32.56;1.85;6.53;3.92;31.91
29.40;17.32;5.12;0.11;3.92;16.55
55.21;31.80;11.54;10.56;2.40;4.46
2.83;6.75;3.48;-1.52;18.51;-10.78
-14.92;11.65;1.85;4.14;7.19;-14.81
9.26;27.77;1.09;-2.29;7.19;-18.08
8.49;5.99;1.85;-1.52;5.55;-14.81
29.40;-19.82;4.25;3.38;8.82;0.44
24.61;-5.34;-0.54;-2.29;7.19;18.95
24.61;-10.89;-4.57;0.11;-8.17;-5.99
-16.44;-17.32;-3.81;-1.52;-18.62;16.55
-47.92;14.81;-2.18;2.50;4.79;55.21
-27.77;-6.86;-0.54;6.53;4.79;43.12
-18.08;5.99;-0.54;8.93;17.64;46.39
-34.19;-2.07;-0.54;0.11;15.25;52.05
-22.11;-6.86;-6.21;-8.71;16.01;-3.59
24.61;5.99;-7.84;-3.92;1.52;1.31
3.70;5.99;-0.54;-6.32;-3.27;-9.15
1.20;1.96;-0.54;-1.52;-36.37;-114.78
6.10;4.36;0.22;0.11;-33.87;-97.79
13.29;5.99;0.22;1.74;-18.62;-26.14
29.40;5.99;6.75;3.38;-9.69;-23.74
50.42;6.75;-10.24;5.77;-9.69;-25.26
3.70;5.99;2.72;4.14;1.52;-2.72
-20.47;2.72;-1.31;-2.29;4.79;19.82
-13.29;-6.86;1.85;-0.65;8.82;27.88
-5.23;-1.31;3.48;3.38;7.19;24.61
1.20;3.59;1.85;10.56;13.61;-5.99
-10.89;5.99;6.75;11.33;4.79;-23.74
-32.56;1.96;-6.21;4.14;7.95;-48.68
-36.59;-15.79;-0.54;-0.65;11.98;-50.31
-30.17;-10.13;-3.81;-2.29;10.45;-37.35
2.83;-4.46;-0.54;-2.29;11.98;-1.96
67.30;-2.07;-4.57;0.87;4.79;-1.96
68.93;-2.07;21.24;-0.65;7.19;2.07
6.10;-2.07;0.22;4.14;3.92;35.94
-37.46;6.75;12.31;20.26;-23.41;36.70
-14.05;1.96;20.36;-3.92;-21.02;50.42
42.36;-1.31;14.81;-5.55;-13.72;48.02
45.52;30.93;1.85;4.14;-12.96;40.73
32.67;10.02;-0.54;0.87;-8.93;25.48
2.83;5.23;-11.87;-1.52;-8.93;-6.75
-66.43;6.75;-21.45;2.50;3.92;12.52
-63.16;11.65;-17.42;-14.37;10.45;0.44
-38.22;0.33;-13.39;3.38;7.95;-18.08
-43.02;-6.86;-11.00;37.13;26.57;-38.22
-19.71;-3.70;-2.18;-1.52;3.16;-46.28
-27.01;-6.86;0.22;-0.65;-7.30;-23.74
50.42;1.96;-0.54;0.11;-0.11;-20.47
84.18;-6.86;-0.54;-0.65;2.40;-1.96
68.93;0.33;-0.54;-0.65;-3.27;7.73
29.40;-1.31;-13.39;-11.22;0.76;4.46
16.55;-5.34;-12.63;-27.33;4.79;24.61
-24.50;0.33;-0.54;-4.68;9.58;30.27
-64.80;-1.31;14.81;0.11;28.10;26.24
-35.83;-4.46;12.31;-0.65;4.79;12.52
-5.23;-2.83;13.18;-1.52;5.55;11.00
5.23;3.59;18.84;5.77;3.92;0.44
15.79;3.59;17.21;6.53;-4.90;-77.65
27.01;4.36;13.18;11.33;-8.17;-94.63
-1.96;7.62;13.18;38.01;5.55;-75.25
1.20;10.02;12.31;37.13;11.98;-28.53
-18.08;5.99;0.22;28.31;-5.66;33.54
-33.43;5.99;4.25;16.23;-5.66;120.55
-65.67;-6.86;3.48;9.80;2.40;143.86
-42.25;-8.49;-0.54;-12.74;0.76;131.01
-39.86;-28.64;-18.30;-27.33;-8.17;79.39
-8.39;-23.85;-28.75;-44.21;-15.35;17.42
53.58;-10.89;-17.42;-39.42;-6.53;-37.35
50.42;-8.49;-3.81;-45.85;-3.27;-53.47
30.27;-6.10;1.09;-16.77;4.79;-49.44
51.18;-7.73;-4.57;-5.55;-0.11;-44.65
42.36;-14.16;-9.37;0.87;-8.17;-31.80
30.27;-6.10;-0.54;4.14;-2.50;-19.71
12.52;4.36;9.15;-3.16;6.43;9.37
-60.00;10.02;11.54;7.30;21.67;39.10
-25.37;10.78;21.24;22.65;36.15;33.54
55.21;30.93;1.09;25.92;23.30;39.97
68.93;9.26;-4.57;16.99;8.82;24.61
34.30;7.62;-7.84;5.77;0.76;-6.75
-1.20;10.02;-7.84;8.93;3.16;-18.08
-0.33;10.02;-11.00;0.87;-2.50;-16.44
-16.44;0.33;-15.90;8.17;-4.14;-30.93
-42.25;-2.83;-2.18;0.87;-21.02;-76.12
-36.59;1.20;56.63;8.17;-25.05;-105.85
-30.17;-5.34;53.47;-3.92;-16.99;-34.96
-37.46;-17.32;24.39;-3.16;-10.56;19.82
-47.92;-19.82;-0.54;-4.68;-5.66;7.73
-52.71;-30.27;-12.63;-6.32;-21.78;-40.62
-69.70;-21.34;-2.18;-9.58;-13.72;-45.41
-73.73;-22.98;13.94;-5.55;-8.17;-20.47
-49.55;-18.19;-9.37;-14.37;-7.30;14.92
-10.89;-4.46;-8.60;-8.71;-0.11;33.54
44.00;21.34;0.22;12.96;25.70;59.24
114.02;50.31;8.28;38.77;47.48;110.86
182.52;56.74;-2.18;25.05;55.54;71.33
60.88;34.19;13.18;4.14;32.13;22.98
21.34;29.40;3.48;-3.16;13.61;37.57
64.90;18.08;-1.31;-12.74;4.79;53.69
122.08;-3.70;-11.87;-14.37;2.40;46.39
76.12;-14.16;-7.84;-8.71;-4.90;2.07
3.70;-105.96;1.09;11.33;-29.84;-40.62
-52.71;-44.76;-0.54;-4.68;-61.31;-76.88
-76.88;-14.16;-4.57;0.87;-45.19;-51.95
-132.53;1.96;-3.81;-9.58;-21.02;-101.06
-73.73;1.96;0.22;-0.65;-2.50;-114.78
-39.10;-1.31;1.09;14.59;-3.27;-79.28
-51.07;-1.31;-7.84;12.96;3.92;-72.85
-25.37;5.23;-11.00;21.89;10.45;-49.44
43.12;38.99;-0.54;0.87;4.79;-10.78
81.02;-1.31;1.09;1.74;4.79;17.42
26.24;1.96;11.54;-1.52;4.79;49.66
-35.83;-1.31;-0.54;-13.61;3.92;44.76
-35.83;-5.34;-4.57;-6.32;5.55;20.58
-34.19;-8.49;-4.57;-2.29;5.55;14.16
-4.36;-6.10;-4.57;-25.70;4.79;19.82
-22.11;-6.86;-2.94;-17.64;6.43;35.07
-18.95;1.96;-0.54;-5.55;13.61;62.51
3.70;14.05;6.75;7.30;15.25;46.39
-45.52;26.90;15.57;-16.77;20.04;35.94
-16.44;35.83;13.18;4.14;16.88;12.52
60.88;21.34;1.09;-1.52;-0.11;-58.37
-14.05;4.36;-7.84;-3.16;-9.69;-91.37
-70.46;-12.52;-16.66;-6.32;-16.99;-73.62
-39.86;5.23;0.22;-2.29;-7.30;4.46
120.44;5.99;7.51;4.90;-8.17;84.29
157.58;1.96;-0.54;-28.86;-12.20;93.11
-47.92;-10.89;13.94;-3.16;8.82;135.80
-73.73;-19.82;12.31;7.30;16.01;159.21
-47.92;-8.49;3.48;29.95;19.28;92.35
-71.22;-7.73;0.22;0.87;-8.93;4.46
-16.44;-18.19;-4.57;3.38;-0.87;-60.00
35.07;-16.55;-23.96;8.93;9.58;-101.06
-22.11;-15.79;-21.45;2.50;-7.30;-134.06
2.83;-2.83;-5.34;12.20;4.79;-126.87
175.22;55.97;26.90;24.28;25.70;-32.56
158.34;57.61;25.26;40.40;45.08;-23.74
-25.37;6.75;0.22;29.95;18.51;-23.74
-22.11;-9.26;-1.31;3.38;-2.50;-57.50
-35.83;-19.82;7.51;-5.55;-16.99;-23.74
-22.11;-4.46;8.28;-1.52;-8.93;-18.08
-10.89;5.99;-1.31;1.74;3.16;28.64
41.49;5.99;-15.03;0.87;4.79;45.63
76.99;-5.34;-26.35;18.62;-6.53;53.69
55.21;5.99;-39.20;-11.22;-12.20;31.91
3.70;5.23;-44.10;-10.35;-12.96;-8.39
-14.05;-2.83;-43.23;-10.35;-21.02;-14.81
-33.43;37.46;19.60;2.50;-5.66;-6.75
12.52;126.87;56.63;3.38;3.92;0.44
-1.96;40.62;25.26;0.87;4.79;6.97
-153.44;-19.82;17.97;12.20;-3.27;2.94
-138.96;-104.33;13.18;10.56;17.64;-23.74
-88.21;-186.55;12.31;24.28;-5.66;-5.12
-22.11;-62.51;16.33;-3.92;16.88;-10.02
229.23;-12.52;-1.31;-14.37;-16.99;-55.10
-3.59;3.59;-26.35;-28.10;-31.47;-48.68
47.15;4.36;-26.35;-22.43;-27.44;-23.74
-85.81;-27.88;-8.60;-3.92;-17.75;-5.12
-191.34;5.99;-6.97;0.11;4.79;1.31
-58.37;22.87;-0.54;2.50;3.16;-26.14
3.70;43.89;23.63;15.35;-5.66;-38.99
110.86;35.83;27.66;11.33;-21.02;17.42
135.04;26.14;21.24;18.62;-3.27;65.78
93.11;14.81;16.33;5.77;4.79;23.85
23.85;37.46;3.48;-3.92;-6.53;-13.18
-34.19;5.23;-0.54;-3.92;28.10;1.31
-72.85;25.37;-6.21;-6.32;4.79;18.19
-34.19;-19.82;-11.00;29.08;-5.66;23.85
-39.86;-14.92;-7.84;4.14;4.79;49.66
-11.65;-18.95;-0.54;7.30;5.55;101.17
-8.39;-18.19;-7.84;6.53;13.61;156.82
46.39;-5.34;12.31;14.59;27.33;53.69
138.19;10.02;20.36;18.62;22.54;-58.37
59.24;14.81;15.57;19.38;20.04;-166.29
-51.95;11.65;-2.18;7.30;16.88;-184.04
-116.41;-2.83;-23.96;-14.37;-20.26;-126.87
-184.04;-10.89;-38.44;-23.30;-63.71;-71.22
-125.23;-1.31;-30.38;-15.25;-76.56;36.70
-56.74;5.23;-4.57;23.41;-46.83;120.55
140.59;18.08;10.78;21.89;15.25;146.25
106.83;30.93;23.63;29.95;30.60;84.29
76.99;43.02;10.78;16.23;26.57;16.55
64.90;35.83;5.12;6.53;20.91;-26.90
31.04;27.77;5.12;-6.32;21.67;-6.75
0.44;5.99;1.09;-19.28;-3.27;-8.39
45.52;15.68;-4.57;-24.07;4.79;7.73
22.98;-2.83;-2.18;-24.83;5.55;20.58
-55.10;-72.20;-6.21;-10.35;4.79;-22.87
-77.75;-117.29;-2.18;-7.19;16.01;-33.32
-63.16;-50.42;1.09;12.20;5.55;-47.92
-20.47;-9.26;3.48;19.38;-0.87;-10.02
47.92;-2.07;-2.94;11.33;-33.11;2.07
114.02;4.36;13.18;12.20;-12.20;1.31
74.60;27.77;0.22;7.30;-3.27;27.88
-22.98;-8.49;2.72;26.68;4.79;36.70
-115.54;-10.89;9.91;-9.58;4.79;26.24
-97.90;9.26;25.26;-3.16;-0.11;-19.71
-51.95;4.36;12.31;-0.65;-10.56;-15.68
-75.25;3.59;8.28;-14.37;-9.69;-11.65
55.21;8.39;-6.21;-21.67;-6.53;2.07
35.07;8.39;-3.81;-11.22;-4.14;2.94
2.07;18.08;-0.54;-9.58;-4.14;7.73
33.43;23.74;-8.60;-1.52;-2.50;-3.59
-24.50;9.26;-17.42;-14.37;-19.38;-76.12
17.32;14.81;-12.63;0.11;-21.78;-128.39
44.00;27.77;-5.34;-11.22;-5.66;-63.16
38.33;10.02;3.48;4.14;5.55;35.94
71.33;7.62;16.33;13.83;24.94;89.95
1.20;10.02;30.06;16.23;16.88;102.04
1.20;5.99;17.97;15.35;29.73;97.14
-21.34;4.36;-4.57;8.93;12.85;74.60
-74.49;-6.86;-8.60;-27.33;4.79;14.92
-17.32;-14.92;-26.35;-16.77;9.58;-57.50
39.97;-10.89;-19.06;-0.65;-16.23;-71.22
41.49;-2.07;-39.20;25.05;-9.69;-41.38
-1.96;-21.34;-29.51;37.13;0.76;-1.96
44.00;-97.14;-27.12;31.47;5.55;22.22
36.70;-72.96;24.39;-5.55;-4.90;48.79
-29.40;32.56;63.92;-34.52;-15.35;33.54
-68.82;31.80;25.26;-21.67;-16.99;38.33
-32.56;29.40;-7.84;-7.19;-12.20;17.42
44.76;-52.82;-23.96;28.31;3.92;27.88
37.46;-17.32;22.00;25.05;9.58;42.36
-66.43;5.99;11.54;19.38;10.45;-2.72
-47.04;-38.33;9.15;24.28;-12.20;-53.47
-21.34;-52.82;10.78;-14.37;-4.90;-40.62
20.58;20.47;22.00;-24.07;-0.11;-79.28
5.23;109.12;-9.37;-1.52;9.58;-97.03
-64.03;130.90;8.28;11.33;17.64;-24.50
-66.43;51.07;-0.54;11.33;12.85;-5.12
-64.80;-4.46;-0.54;16.99;20.04;46.39
109.23;0.33;5.12;15.35;26.57;91.48
199.40;-13.29;-7.84;6.53;4.79;25.48
41.49;-18.95;5.12;2.50;-19.38;-75.25
18.95;-14.92;-0.54;38.01;-21.02;-106.72
1.20;30.17;0.22;77.43;-36.37;-105.09
-128.50;23.74;-0.54;55.65;-43.56;-79.28
-155.84;13.29;-0.54;36.37;-17.75;-46.28
-85.81;48.68;5.12;31.47;4.79;39.97
130.14;138.96;9.91;-5.55;20.91;94.74
196.24;-97.14;4.25;-65.99;-0.87;131.01
104.33;-146.25;25.26;-65.99;17.64;183.39
17.32;-97.14;21.24;-79.71;34.63;209.09
-151.04;-59.24;-17.42;-93.33;20.04;205.93
-176.85;-31.91;-49.66;-167.49;-11.33;122.95
-180.88;-6.86;-31.15;-119.14;-10.56;2.94
-137.32;-4.46;-25.48;-38.55;-3.27;-195.26
-19.71;26.14;5.12;37.13;-5.66;-317.77
64.03;53.58;23.63;54.89;-2.50;-251.67
109.99;10.02;13.94;40.40;-13.72;-153.44
58.48;-10.89;24.39;45.19;4.79;-65.56
89.08;6.75;22.87;47.59;15.25;2.07
93.87;18.08;36.48;31.47;-0.11;51.18
86.68;14.81;-0.54;-6.32;5.55;70.57
76.99;-11.76;-13.39;12.20;3.16;24.61
5.23;-14.16;-7.84;14.59;-12.96;15.79
-3.59;-17.32;-9.37;5.77;-9.69;1.31
-47.92;-17.32;-4.57;0.87;-21.02;19.82
-138.09;-6.10;-6.21;-0.65;-26.68;3.70
-141.35;5.99;0.22;-6.32;-7.30;2.07
-105.09;-3.70;-1.31;-1.52;20.04;-9.15
-65.67;1.96;8.28;12.96;-3.27;-6.75
-13.29;26.90;14.81;19.38;-16.23;-5.99
-53.58;32.56;1.09;15.35;3.92;35.07
66.54;10.78;-2.18;18.62;-7.30;72.20
218.02;14.81;-0.54;8.93;19.28;53.69
261.47;41.49;4.25;4.14;50.64;58.48
209.09;17.32;1.09;-2.29;21.67;-38.22
14.16;-15.79;-16.66;-16.01;-2.50;-64.03
-99.43;-10.13;25.26;-16.01;-3.27;-56.74
-51.07;-9.26;76.77;2.50;-4.90;-60.00
-22.11;-18.95;33.32;-1.52;8.82;-18.08
14.16;5.99;-11.00;10.56;26.57;44.76
78.63;6.75;-32.02;10.56;16.01;31.91
-158.23;-27.88;-78.73;11.33;-11.33;-34.19
-93.87;-21.34;-56.08;41.16;-33.11;-20.47
-49.55;8.39;10.78;15.35;3.92;36.70
81.78;7.62;25.26;11.33;4.79;88.32
143.86;14.05;10.78;-1.52;-26.68;101.17
134.16;11.65;29.29;-10.35;7.19;98.01
80.15;11.65;24.39;-14.37;10.45;96.38
-68.06;11.65;13.94;-26.46;-2.50;32.67
-175.22;5.23;-15.90;-35.39;-19.38;-16.44
-130.14;-2.07;-26.35;-22.43;-34.74;-90.60
-99.43;2.72;-17.42;-2.29;-37.90;-74.49
-217.15;-2.83;-31.15;11.33;-15.35;-5.12
-21.34;14.05;-20.69;33.11;30.60;-26.14
81.78;10.78;-2.94;-14.37;19.28;-76.88
-139.72;-6.86;-1.31;-1.52;7.19;-126.87
-71.22;-5.34;0.22;7.30;0.76;-166.29
-6.86;-8.49;10.78;11.33;-0.11;-99.43
22.22;-89.84;25.26;11.33;7.19;-1.09
159.97;-42.36;20.36;15.35;29.73;33.54
60.00;19.71;14.81;33.11;15.25;58.48
39.97;42.25;3.48;28.31;3.92;72.20
36.70;31.80;-15.03;11.33;-9.69;48.02
69.70;32.56;-23.96;4.14;-21.78;20.58
35.07;13.29;-20.69;-3.92;-15.35;14.16
-6.86;-89.84;-34.41;-32.89;-12.20;27.01
24.61;-45.52;3.48;5.77;4.79;65.78
67.30;47.04;40.51;16.99;4.79;67.30
62.51;57.61;16.33;-1.52;-19.38;30.27
-65.67;30.17;9.15;-28.10;-12.20;44.00
-88.97;15.68;0.22;-17.64;3.92;25.48
-51.07;0.33;-1.31;-27.33;4.79;-22.11
12.52;-1.31;14.81;16.99;26.57;-38.22
109.23;30.93;14.81;20.26;23.30;-93.76
-86.58;-74.60;-0.54;6.53;5.55;-76.88
-77.75;-126.11;-0.54;-6.32;-16.99;-54.34
-6.86;-30.27;8.28;-16.01;-12.20;-23.74
135.04;53.58;2.72;-21.67;-3.27;53.69
275.19;94.63;4.25;-44.21;6.43;54.45
145.49;10.78;-0.54;-40.95;10.45;6.10
39.10;-6.86;-0.54;-8.71;-3.27;-59.13
-160.74;-7.73;-4.57;3.38;-25.05;-10.78
-239.69;-18.95;-6.21;37.13;10.45;57.72
-209.85;-32.67;7.51;16.23;3.16;52.05
-58.37;-24.61;-14.27;3.38;-8.93;-3.59
25.37;-17.32;4.25;5.77;5.55;-66.43
47.15;4.36;3.48;-11.22;29.73;-89.73
31.91;29.40;1.09;-29.73;-12.96;-76.12
65.67;14.81;1.85;-12.74;-7.30;-10.02
95.51;2.72;8.28;25.05;21.67;105.20
118.92;37.46;11.54;50.09;41.82;167.27
42.36;16.44;26.90;49.22;25.70;182.52
-71.22;0.33;17.97;35.50;-0.87;145.49
-128.50;17.32;9.91;21.02;-13.72;53.69
-133.29;85.70;-14.27;23.41;5.55;-41.38
-75.25;77.75;-52.05;9.80;8.82;-51.07
55.21;35.83;-75.47;-39.42;-7.30;-69.59
170.43;-27.01;-44.87;-55.54;-8.93;-51.07
142.99;-150.28;13.94;-16.77;-9.69;-113.91
1.20;-76.23;9.91;16.23;-0.11;-90.60
-66.43;-34.30;4.25;0.11;2.40;-77.65
-76.12;-18.19;7.51;-39.42;-4.14;-64.03
-87.34;-2.83;40.51;-11.98;9.58;35.94
-79.28;-25.37;17.21;11.33;-15.35;41.60
-42.25;-54.45;6.75;4.14;-29.84;39.97
8.49;-48.02;-7.84;11.33;-19.38;29.51
-22.11;-33.43;4.25;29.95;-5.66;11.76
-35.83;-22.22;8.28;25.92;-3.27;1.31
3.70;-23.85;-18.30;-1.52;-16.23;2.07
-90.60;101.06;-4.57;-40.18;-20.26;25.48
-53.58;170.32;-9.37;-28.10;19.28;81.89
47.92;104.33;6.75;-11.98;61.20;83.42
37.46;-11.76;-9.37;-34.52;23.30;46.39
259.07;-6.86;-0.54;-41.82;0.76;11.76
179.25;3.59;17.21;-32.89;-7.30;-55.10
39.97;-18.95;12.31;-15.25;-4.90;-112.28
-109.12;-33.43;5.12;9.80;-4.14;-126.87
-84.94;-31.04;-6.97;34.74;4.79;-68.06
55.97;1.96;0.22;46.83;14.48;-6.75
110.86;0.33;-11.00;37.13;7.19;36.70
-46.28;-12.52;-18.30;46.06;4.79;59.24
-119.57;39.86;-2.18;21.89;10.45;64.14
-165.53;9.26;14.81;23.41;-0.11;18.95
-111.51;34.19;22.00;9.80;3.92;12.52
117.29;-1.31;17.21;16.23;1.52;22.98
30.27;4.36;5.12;13.83;6.43;12.52
67.30;-10.89;-16.66;7.30;-5.66;-51.95
24.61;-14.16;-36.81;-53.91;-41.93;-124.36
-42.25;-7.73;-17.42;-76.45;-25.05;-79.28
-7.62;15.68;12.31;-94.20;-15.35;1.31
28.64;-6.10;-6.21;-24.07;-0.11;75.36
-22.11;-22.22;-16.66;20.26;2.40;159.97
-22.11;-8.49;-4.57;32.34;16.88;169.67
16.55;26.14;-1.31;16.99;-13.72;71.33
-10.89;-7.73;-33.54;-17.64;-4.14;-64.80
-39.10;-14.92;-27.99;-21.67;5.55;-126.00
14.16;-6.86;-8.60;-7.19;18.51;-100.19
52.82;-23.85;-0.54;11.33;23.30;-75.25
18.19;-37.46;1.09;9.80;7.19;-51.95
-61.64;-6.10;13.18;-9.58;-2.50;-23.74
-151.81;-4.46;1.09;-3.92;-25.05;-9.15
-142.11;3.59;10.78;42.04;3.16;13.39
44.00;20.47;12.31;12.20;-19.38;91.48
62.51;30.93;25.26;-1.52;-13.72;77.86
89.08;55.10;11.54;2.50;8.82;27.88
144.62;15.68;17.21;11.33;25.70;22.22
68.06;-71.33;24.39;-0.65;13.61;-8.39
19.82;-48.02;8.28;0.87;28.97;3.70
-32.56;47.04;13.18;-11.98;28.10;-22.87
-23.74;34.19;12.31;11.33;5.55;-8.39
-14.92;13.29;12.31;-1.52;-4.14;-22.11
31.04;35.83;1.85;-14.37;-15.35;-63.16
29.40;40.62;4.25;3.38;-9.69;-23.74
-46.28;-4.46;3.48;-2.29;-6.53;6.97
-52.71;-18.95;-9.37;-14.37;-4.14;53.69
-124.47;-48.02;-18.30;-20.04;-5.66;101.17
-94.63;-56.85;-18.30;-29.73;-2.50;79.39
108.36;-18.95;-9.37;-25.70;9.58;30.27
101.17;-21.34;-9.37;26.68;-21.02;-19.71
35.07;-33.43;-7.84;21.89;-26.68;-50.31
-47.92;-14.16;0.22;23.41;-6.53;-79.28
16.55;57.61;10.78;25.92;-0.11;-99.43
85.05;98.66;-12.63;15.35;11.98;-2.72
69.70;108.36;-0.54;11.33;33.76;-19.71
10.89;31.80;-5.34;21.89;12.85;-44.65
-80.91;-2.07;-2.94;8.93;-0.11;-31.80
-100.30;-81.78;-15.03;7.30;-4.14;-40.62
-49.55;-40.73;4.25;-37.79;-6.53;-13.18
11.76;20.47;76.01;-38.55;0.76;33.54
82.66;1.96;40.51;-47.48;-7.30;105.20
-47.92;-89.08;11.54;-14.37;10.45;98.01
-7.62;-85.05;6.75;39.53;1.52;62.51
-6.86;-14.16;10.78;-1.52;-16.23;35.07
22.22;19.71;26.90;-7.19;-4.14;-32.56
-22.98;29.40;17.21;-9.58;-20.26;-109.12
70.57;27.77;-8.60;22.65;-25.81;-113.15
16.55;14.81;-57.72;23.41;-21.02;-62.40
131.77;5.99;-70.68;33.11;2.40;2.07
154.31;57.61;-44.10;72.64;25.70;41.60
-0.33;35.83;40.51;25.92;4.79;53.69
122.08;84.18;6.75;-3.92;-19.38;52.05
-151.04;-14.92;-0.54;-65.12;-36.37;53.69
-174.35;-89.84;-5.34;-39.42;4.79;-0.33
-90.60;-85.81;-1.31;-37.79;23.30;-74.49
-60.00;-59.24;-11.87;-53.91;5.55;-126.87
-99.43;-109.99;16.33;5.77;33.00;-77.65
-71.22;-45.52;43.78;6.53;16.01;-30.93
4.46;123.60;38.11;3.38;-3.27;44.00
-148.65;105.85;22.00;12.20;-7.30;151.92
-110.75;31.80;16.33;32.34;-6.53;178.49
77.75;34.19;-0.54;32.34;-10.56;141.46
237.29;26.90;7.51;33.11;11.22;98.01
159.97;10.02;-24.72;37.13;4.79;-44.65
-15.68;-9.26;-44.10;29.95;4.79;-49.44
18.19;-19.82;-44.87;38.77;1.52;-47.92
23.85;-10.89;-26.35;19.38;-19.38;-12.41
-22.11;-22.22;-9.37;-4.68;-9.69;-34.96
2.83;3.59;11.54;-9.58;-21.02;2.07
-79.28;17.32;17.97;-5.55;1.52;53.69
-205.06;5.23;4.25;-14.37;8.82;-7.62
-72.09;1.96;-1.31;6.53;25.70;-38.22
125.34;15.68;-1.31;-9.58;27.33;-43.89
247.75;5.99;3.48;-12.74;-6.53;-38.22
158.34;-33.43;-11.87;-86.90;-17.75;2.07
118.92;-33.43;-22.32;-71.66;-21.02;-26.14
29.40;-10.13;3.48;-25.70;-21.02;-7.62
-39.86;14.81;-2.94;16.23;21.67;28.64
-73.73;7.62;38.11;50.86;16.88;-8.39
-22.98;18.08;38.11;45.19;8.82;-72.85
-73.73;31.80;16.33;6.53;-7.30;-154.20
-99.43;39.86;-2.94;11.33;-20.26;-126.00
-97.03;17.32;-19.06;-16.77;-16.99;-67.19
-122.84;-68.93;-39.20;-27.33;-2.50;16.55
-43.89;-79.39;-39.20;-21.67;-0.11;99.53
128.50;-50.42;-10.24;33.11;-0.11;135.04
132.53;-19.82;17.21;68.61;4.79;110.86
64.03;-31.04;17.21;84.72;8.82;52.05
38.33;14.05;27.66;88.75;7.19;-18.08
-71.22;126.00;25.26;50.86;3.92;46.39
-49.55;169.56;30.93;25.92;17.64;90.71
118.92;83.31;13.94;-32.89;18.51;51.18
72.09;-125.34;-18.30;-91.69;-13.72;-12.41
-75.25;-94.74;-14.27;-127.20;-26.68;-64.03
-190.47;-44.00;-40.08;-137.65;-26.68;-85.70
-138.09;-18.19;-40.84;-70.02;-13.72;-109.12
-106.72;5.99;-46.50;-42.58;9.58;-72.85
296.10;14.81;19.60;8.93;3.16;-28.53
93.11;14.81;76.01;61.31;0.76;-7.62
-1.96;45.52;50.97;73.40;8.82;50.42
-81.78;-14.92;-2.18;51.62;13.61;78.63
-22.11;-31.91;-27.12;62.94;20.04;54.45
85.05;-10.13;-40.08;42.80;4.79;14.16
48.79;-34.30;-32.02;-14.37;-8.17;-44.65
-92.24;-40.73;16.33;-2.29;-18.62;-53.47
-73.73;-48.02;8.28;6.53;-10.56;-38.99
106.83;21.34;29.29;21.89;4.79;33.54
147.89;109.12;30.06;-13.61;9.58;31.91
-49.55;70.46;6.75;-16.01;16.88;39.10
-190.47;6.75;13.18;18.62;16.01;63.27
-223.57;-6.86;-19.06;5.77;-4.14;56.08
-166.29;-8.49;-33.54;2.50;-3.27;-12.41
-22.11;1.96;-21.45;10.56;-0.11;-58.37
83.42;32.56;13.18;36.37;9.58;-96.16
137.43;52.71;15.57;10.56;3.16;22.98
6.86;134.93;12.31;-18.40;-9.69;-12.41
-42.25;43.02;6.75;-40.95;-21.78;-49.44
-16.44;-118.92;-4.57;-11.22;-29.84;-24.50
-22.98;-175.33;0.22;11.33;-5.66;79.39
-37.46;-89.84;1.09;16.99;19.28;157.58
85.05;-3.70;-4.57;10.56;33.00;164.00
198.63;21.34;-7.84;-13.61;24.94;90.71
170.43;10.02;-4.57;-5.55;11.98;-15.68
-47.92;-20.58;-26.35;-14.37;-8.93;-105.85
-190.47;-25.37;-16.66;-21.67;-29.08;-166.29
-246.88;-8.49;-3.81;-25.70;-34.74;-80.04
-194.50;5.99;1.85;-38.55;-48.35;-61.53
-86.58;-6.86;5.12;-26.46;0.76;22.22
143.86;40.62;32.45;-3.16;19.28;75.36
331.60;27.77;8.28;21.89;26.57;40.73
274.32;31.80;11.54;40.40;65.23;38.33
125.34;-1.31;0.22;21.89;20.04;-95.40
91.48;-6.86;-7.84;7.30;-9.69;-155.07
-164.77;-3.70;-37.57;-9.58;-38.77;-179.14
-367.76;-24.61;-15.90;-10.35;-54.01;-101.06
-292.83;-14.16;-0.54;2.50;-25.81;-38.99
-29.40;40.62;9.91;25.05;25.70;6.97
2.83;40.62;-0.54;26.68;4.79;21.45
135.04;-6.86;-8.60;29.95;-8.93;65.78
292.07;31.80;0.22;41.16;5.55;96.38
230.87;49.55;11.54;33.11;19.28;88.32
85.81;-14.16;-0.54;4.14;3.16;118.05
4.46;-112.38;7.51;-29.73;-20.26;135.04
-151.04;-19.82;1.09;-24.83;23.30;89.95
-210.61;1.96;10.78;-49.00;20.91;20.58
-230.00;1.96;6.75;-70.02;-0.11;25.48
-127.63;-5.34;-9.37;-79.71;-28.31;-11.65
-19.71;-18.95;-19.06;-36.92;-30.71;-1.96
51.18;1.20;-17.42;3.38;-7.30;-14.05
80.15;21.34;-17.42;-15.25;20.91;-29.29
69.70;53.58;-0.54;8.93;33.00;-34.19
222.05;81.78;15.57;58.15;-11.33;-126.00
205.93;58.37;-24.72;20.26;3.16;-67.19
80.15;-2.83;-22.32;20.26;3.92;-12.41
-24.50;-152.68;3.48;29.95;6.43;22.22
-97.03;-88.32;60.66;12.96;6.43;17.42
-68.06;-7.73;50.97;22.65;-16.23;-22.87
-53.58;5.99;23.63;12.20;-21.78;-34.19
7.73;-23.85;24.39;3.38;-21.78;-58.37
-21.34;-28.64;-11.00;20.26;-16.99;-49.44
-34.19;-18.95;16.33;32.34;-12.96;-35.83
41.49;11.65;24.39;40.40;5.55;28.64
-98.66;37.46;24.39;52.49;30.60;101.17
-36.59;34.96;-11.00;-12.74;18.51;173.70
-109.99;5.23;-52.05;-99.75;-21.02;181.75
-9.26;84.94;-44.10;-96.59;7.19;172.93
-14.92;68.82;-44.10;-65.12;33.00;84.29
-37.46;-21.34;-44.10;-35.39;7.19;-58.37
-103.45;-54.45;-33.54;-15.25;-11.33;-124.36
-101.93;-44.00;36.48;-13.61;-4.14;-199.29
57.61;-21.34;60.66;27.44;6.43;-155.07
261.47;-34.30;54.99;50.09;-8.93;-166.29
172.06;29.40;23.63;75.79;-16.99;-41.38
-60.00;-43.12;-31.15;80.69;3.92;5.34
-172.82;5.99;-52.05;75.03;4.79;23.85
-87.34;-17.32;-40.84;37.13;7.95;23.85
-117.18;15.68;5.12;9.80;-7.30;11.00
49.55;57.61;32.45;8.93;3.92;31.04
315.48;109.12;59.89;-15.25;8.82;20.58
99.53;96.27;25.26;-102.26;-18.62;25.48
84.18;14.05;-38.44;-131.22;-34.74;-12.41
-76.12;-52.82;-52.93;-91.69;-23.41;-49.44
-55.10;-36.70;-26.35;-39.42;-8.93;-51.07
-24.50;-18.19;-14.27;-18.40;6.43;-16.44
50.42;-8.49;26.03;0.87;20.91;17.42
55.97;21.34;12.31;37.13;19.28;38.33
-132.53;-17.32;-0.54;66.97;27.33;68.17
-73.73;2.72;11.54;75.03;10.45;77.86
16.55;5.23;11.54;44.43;-11.33;2.07
-55.10;-31.04;13.18;-3.16;-18.62;26.24
-47.92;-45.52;-24.72;-10.35;-22.65;44.76
85.81;-22.22;-1.31;-13.61;13.61;100.41
296.97;19.71;13.18;4.90;7.19;45.63
159.10;51.07;21.24;18.62;20.04;-32.56
-24.50;43.02;9.91;11.33;9.58;-44.65
-75.25;31.80;1.09;-1.52;-8.17;-69.59
-119.57;116.41;-0.54;-7.95;-8.93;-10.78
-176.85;72.09;-15.03;-12.74;-6.53;105.96
-71.22;-48.02;-20.69;-25.70;-15.35;97.14
-72.09;-186.55;-0.54;-31.36;10.45;29.51
-52.71;-134.16;0.22;11.33;19.28;-11.65
125.34;-22.98;22.87;27.44;10.45;-122.84
18.95;-4.46;60.66;39.53;-21.02;-166.29
-11.65;16.44;39.75;29.95;-19.38;-149.41
34.30;13.29;7.51;34.74;-16.99;-77.65
20.58;-6.10;-18.30;-3.92;-17.75;11.00
-53.58;3.59;-22.32;-49.88;-12.96;62.51
-148.65;-18.95;-11.87;-32.89;-13.72;59.24
-178.38;-14.92;-18.30;-35.39;-21.02;39.10
2.07;-14.16;-15.90;-29.73;4.79;-3.59
150.28;57.61;11.54;7.30;35.39;89.95
166.40;47.04;4.25;23.41;43.45;239.80
106.83;8.39;-2.18;16.99;30.60;186.55
-26.14;-15.79;-13.39;2.50;-0.87;88.32
-64.80;-41.49;-26.35;2.50;-0.87;39.10
-88.21;5.99;-23.09;3.38;-2.50;-82.55
-51.95;30.93;-7.84;12.96;-8.17;-196.13
-60.77;39.86;3.48;0.87;-33.87;-198.52
-101.93;40.62;17.21;-2.29;-38.77;-166.29
63.27;48.68;16.33;4.14;-16.99;-101.82
155.94;31.80;17.21;6.53;2.40;22.98
119.68;30.93;35.72;-3.16;33.76;56.08
72.09;5.23;25.26;-11.22;30.60;68.93
-55.97;1.96;1.85;-25.70;4.79;44.00
-107.48;-9.26;1.09;10.56;2.40;0.44
-56.74;-117.29;8.28;20.26;5.55;10.13
-100.30;-90.71;25.26;13.83;0.76;48.79
22.98;5.99;32.45;25.05;8.82;118.05
53.58;30.17;14.81;19.38;13.61;72.20
27.01;23.74;-27.12;23.41;4.79;14.16
-23.74;1.20;-60.98;-3.16;9.58;-29.29
-30.17;-78.63;-62.62;-7.19;-15.35;-124.36
-1.96;-23.85;13.94;-9.58;-28.31;-167.92
11.76;16.44;-26.35;-20.04;-23.41;-100.19
-51.07;-62.51;-18.30;-29.73;-8.93;39.97
-123.60;-92.35;5.12;-14.37;8.82;100.41
-98.66;0.33;10.78;-14.37;19.28;99.53
-161.50;8.39;6.75;-3.92;18.51;-21.24
-114.02;32.56;17.97;-3.16;15.25;-80.04
94.74;59.13;32.45;22.65;4.79;-166.29
189.81;78.52;48.57;27.44;-46.83;-100.19
313.09;62.40;16.33;-2.29;-69.37;10.13
213.12;-1.31;-23.96;-14.37;-29.84;138.19
-12.41;-4.46;-52.05;-3.92;-8.93;168.90
-49.55;5.23;-34.41;0.11;-0.87;96.38
-138.96;1.20;-28.75;-3.92;-5.66;38.33
-151.81;-6.10;-18.30;18.62;4.79;-13.18
-49.55;11.65;4.25;51.62;39.42;-28.53
263.86;18.08;25.26;47.59;31.36;-43.89
105.96;-19.82;-0.54;-3.92;13.61;-44.65
-51.07;-18.95;7.51;-26.46;5.55;-34.19
0.44;-6.86;14.81;4.14;32.13;12.52
-101.06;-14.92;13.94;11.33;6.43;39.97
-101.06;-62.51;-11.00;-11.98;-15.35;53.69
-30.17;-44.76;-4.57;-12.74;-2.50;20.58
-69.70;-6.86;4.25;11.33;8.82;-1.09
-46.28;2.72;5.12;-10.35;7.19;13.39
-21.34;10.78;4.25;31.47;2.40;-43.89
199.40;87.34;26.90;49.22;1.52;-64.03
394.44;116.41;19.60;16.99;-10.56;-43.02
76.99;46.28;3.48;-15.25;3.92;-10.02
-99.43;-31.04;-0.54;-24.07;-17.75;44.76
-197.00;-52.82;1.85;-26.46;-19.38;81.02
-61.64;-107.59;-11.87;-65.99;-8.17;61.75
85.05;-71.33;-27.99;-80.48;9.58;39.10
106.83;-28.64;-29.51;-52.27;5.55;49.66
41.49;-11.76;-26.35;-44.21;4.79;27.88
-114.02;10.78;-15.90;2.50;7.19;-26.14
-168.79;63.16;-11.87;25.05;30.60;-53.47
-367.76;83.31;9.91;62.94;39.42;-41.38
-158.23;85.70;46.17;50.09;12.85;-88.10
-105.96;-41.49;51.84;47.59;-6.53;-101.06
68.93;-71.33;25.26;31.47;-26.68;-97.03
231.63;-19.82;20.36;33.11;-12.96;-36.59
68.06;-40.73;1.09;19.38;3.92;38.33
184.15;-24.61;-0.54;19.38;16.88;59.24
151.92;-14.16;-0.54;11.33;7.19;64.14
89.08;10.02;8.28;13.83;15.25;105.96
20.58;-2.07;4.25;-16.77;5.55;114.02
-90.60;99.43;12.31;-40.18;3.92;77.86
-106.72;174.35;11.54;24.28;-8.93;-6.75
-74.49;109.12;-15.03;30.71;-5.66;-23.74
-124.47;-59.24;-49.66;16.23;4.79;-31.80
-18.08;-105.20;-52.93;3.38;-7.30;-51.07
106.83;-76.23;0.22;-6.32;-16.99;-68.06
117.29;-48.79;-2.18;-53.03;-13.72;-113.91
-45.52;-48.02;-13.39;-40.95;-21.02;-138.96
-126.87;-48.79;-20.69;-64.36;-37.90;-103.45
-124.47;-44.76;-12.63;-36.15;-4.90;-2.72
-151.04;-6.10;-6.21;-4.68;-1.63;107.59
-29.40;-3.70;0.22;11.33;7.19;211.59
67.30;18.08;11.54;16.23;30.60;213.99
14.92;13.29;9.91;5.77;17.64;122.08
70.57;10.78;16.33;8.93;-15.35;29.51
209.96;37.46;27.66;5.77;-0.87;-38.22
286.41;37.46;29.29;8.93;-4.90;-101.06
-38.22;13.29;25.26;10.56;-24.28;-55.10
-252.54;-6.86;3.48;18.62;-16.99;2.07
-216.28;-5.34;-0.54;42.80;20.91;-36.59
-86.58;3.59;6.75;16.23;5.55;-126.00
-254.93;22.87;-2.94;11.33;-0.11;-158.23
-166.29;26.90;-21.45;-5.55;-8.17;-160.63
-73.73;1.96;-31.15;-4.68;-23.41;-154.20
-71.22;-27.01;-25.48;20.26;-23.41;-14.81
194.60;4.36;5.12;12.96;-21.78;135.80
213.99;56.74;34.09;11.33;-9.69;218.78
49.55;17.32;-2.18;-16.01;-19.38;141.46
-52.71;-71.33;-26.35;-10.35;-0.11;45.63
-126.87;-29.40;-27.12;-15.25;22.54;-4.36
-135.69;34.19;-52.05;-40.18;29.73;-55.97
-99.43;36.59;-10.24;-16.77;61.96;-26.14
139.83;-140.59;24.39;19.38;45.08;2.94
158.34;-135.04;17.97;-27.33;35.39;53.69
255.81;-10.89;1.85;-13.61;24.94;188.18
215.51;31.80;-25.48;-1.52;3.92;130.14
-19.71;41.49;-8.60;11.33;-5.66;18.95
-171.95;42.25;-14.27;29.95;9.58;-38.99
3.70;31.80;-0.54;38.01;7.95;-105.09
-49.55;16.44;-8.60;12.20;-21.02;-175.98
-85.81;-4.46;45.41;-5.55;-28.31;-216.28
-123.60;36.59;56.63;-9.58;-21.02;-75.25
-118.05;-2.83;35.72;-16.01;-18.62;40.73
-106.72;-7.73;8.28;-26.46;-8.93;78.63
6.10;-27.88;-5.34;-26.46;0.76;100.41
9.26;-23.85;-11.00;-4.68;4.79;79.39
-57.61;-19.82;-22.32;23.41;4.79;14.16
-22.98;1.20;-5.34;47.59;9.58;-23.74
22.22;-3.70;-11.87;33.11;5.55;4.46
68.93;53.58;5.12;6.53;4.79;2.07
-1.20;100.30;1.09;0.87;3.92;-24.50
-0.33;52.71;-18.30;-1.52;4.79;-37.35
31.91;-31.04;-21.45;-25.70;-1.63;-6.75
67.30;-23.85;-29.51;-29.73;-2.50;2.07
155.94;-6.10;-11.00;-40.18;5.55;56.08
-60.00;-4.46;9.91;-15.25;-12.96;92.35
-141.35;-15.79;11.54;11.33;10.45;97.14
-125.23;-14.92;-1.31;19.38;17.64;44.00
-132.53;-8.49;17.21;16.23;11.98;0.44
40.73;-10.89;6.75;8.17;-10.56;11.76
-61.64;5.99;1.85;16.99;-18.62;-88.97
-99.43;27.77;16.33;26.68;-16.99;-103.45
30.27;21.34;13.18;29.95;6.43;-85.70
79.39;42.25;3.48;6.53;-19.38;-114.78
80.15;84.94;9.15;-2.29;-16.99;-119.57
63.27;-9.26;5.12;-2.29;-10.56;-102.69
161.61;-89.84;-1.31;0.87;-8.93;-60.00
127.74;-107.59;-6.21;9.80;-18.62;-21.24
52.82;-45.52;-8.60;4.90;-10.56;27.88
46.39;-4.46;-12.63;0.87;-2.50;104.44
-24.50;-6.10;-3.81;2.50;23.30;92.35
89.84;18.08;11.54;0.87;22.54;85.92
51.18;18.08;1.09;-18.40;17.64;52.82
3.70;29.40;-0.54;-78.84;-8.93;1.31
-35.83;-6.86;-6.21;-90.17;-33.87;-38.22
44.00;-20.58;-11.00;-56.30;-17.75;-10.78
-53.58;-28.64;-6.21;-14.37;-6.53;18.95
-85.81;11.65;12.31;46.06;7.95;52.05
-113.15;24.50;29.29;52.49;19.28;81.02
55.21;60.00;42.91;102.37;58.70;139.83
197.87;43.89;14.81;33.98;30.60;56.85
-18.95;1.96;-38.44;0.87;20.04;-23.74
-80.91;5.99;-52.93;-3.16;21.67;-71.22
-19.71;5.99;-46.50;-4.68;-8.93;-204.19
14.16;1.96;26.03;-1.52;-29.08;-256.57
191.34;7.62;-0.54;11.33;-34.74;-174.35
151.04;-15.79;-15.90;-11.98;-33.11;-45.41
16.55;-6.10;-0.54;0.87;-6.53;116.52
-111.51;-23.85;-8.60;8.17;8.82;208.33
-210.61;-30.27;-11.00;8.93;12.85;246.22
-82.55;-15.79;5.12;19.38;0.76;194.60
118.92;-7.73;7.51;21.89;-2.50;36.70
29.40;-8.49;7.51;21.89;-2.50;-23.74
-60.77;5.99;5.12;24.28;-21.78;-43.89
-138.09;-14.16;1.09;9.80;2.40;-43.89
-66.43;-39.97;-0.54;-19.28;-15.35;-76.12
-103.45;5.99;3.48;-4.68;3.92;-105.09
209.96;33.43;-1.31;-11.98;-12.96;-98.66
192.21;31.80;-1.31;10.56;-21.02;-19.71
5.23;1.96;1.85;37.13;12.85;122.08
135.04;67.19;17.97;8.93;51.51;159.21
118.92;58.37;14.81;-0.65;18.51;136.67
2.83;-18.19;53.47;0.87;31.36;148.76
64.90;-54.45;22.87;-15.25;23.30;53.69
76.99;-33.43;3.48;-40.95;-16.99;-117.94
43.12;59.13;-11.87;-41.82;-34.74;-172.72
-59.13;65.67;-15.03;-44.21;-49.22;-140.48
-115.54;30.17;-15.03;-22.43;-21.78;-138.96
-32.56;16.44;-2.18;-2.29;-0.87;-114.78
-4.36;-7.73;1.85;25.92;8.82;-75.25
-32.56;-49.55;-1.31;38.77;-0.11;10.13
106.83;-49.55;-11.87;54.12;4.79;45.63
136.56;-97.14;-31.15;42.80;1.52;26.24
-22.11;-188.94;-40.08;-5.55;4.79;58.48
-123.60;-110.86;9.15;-40.18;13.61;73.83
-151.04;97.03;11.54;-67.63;-3.27;2.07
-39.10;147.01;-11.87;-49.00;-21.02;2.94
-68.82;114.78;-8.60;-24.83;-8.93;48.02
2.07;5.23;24.39;-10.35;-15.35;39.97
46.39;-35.07;-11.87;-1.52;-17.75;-10.02
-58.37;-23.85;-34.41;11.33;-13.72;-18.08
-47.92;36.59;-4.57;70.24;16.01;-29.29
26.24;34.19;27.66;54.12;0.76;-60.77
6.10;18.08;26.90;42.80;8.82;27.01
-51.95;-5.34;24.39;48.46;4.79;69.80
-139.72;-19.82;24.39;37.13;-0.11;68.93
23.85;-30.27;10.78;42.80;22.54;-34.19
36.70;28.53;0.22;29.95;34.63;-92.13
-22.11;137.32;-2.94;-0.65;30.60;-97.03
76.99;138.09;-34.41;-61.96;9.58;-98.66
85.81;-102.80;-35.17;-86.90;-21.02;-97.03
32.67;-31.91;-41.60;-81.24;-41.16;-36.59
15.79;37.46;3.48;-57.06;-21.02;155.18
15.79;-153.55;-1.31;-28.10;-20.26;135.04
-32.56;-192.21;6.75;16.23;-16.23;131.01
-25.37;-71.33;19.60;83.85;14.48;127.74
136.56;23.74;24.39;65.34;17.64;92.35
137.43;46.28;27.66;46.06;41.06;44.76
105.96;30.93;47.81;12.96;22.54;-8.39
21.34;26.14;25.26;2.50;15.25;-63.16
52.82;36.59;4.25;-8.71;-8.93;-75.25
28.64;26.90;-42.47;-25.70;-22.65;-82.55
-8.39;10.02;-52.05;-24.83;-23.41;-106.72
-116.41;23.74;-18.30;0.11;5.55;-30.93
-85.81;36.59;52.60;10.56;26.57;25.48
-42.25;22.11;38.99;8.17;5.55;-11.65
-76.88;-10.89;-0.54;-15.25;-2.50;7.73
132.53;-8.49;-8.60;2.50;-8.93;-68.06
91.48;-14.16;-9.37;-21.67;-8.17;-126.87
47.15;-21.34;-17.42;-14.37;4.79;-101.06
3.70;-55.21;-19.06;-8.71;-10.56;-31.80
-27.01;-30.27;-18.30;-3.92;-0.11;27.88
-17.32;-21.34;-10.24;-1.52;2.40;131.01
-26.14;5.99;-0.54;11.33;15.25;205.93
67.30;26.90;13.18;12.20;23.30;183.39
67.30;7.62;11.54;19.38;8.82;118.05
-48.68;-2.07;4.25;23.41;-10.56;11.00
-177.62;-2.83;2.72;25.92;-18.62;-34.96
-165.53;-2.83;0.22;11.33;-18.62;-40.62
-167.16;-6.86;-1.31;34.74;-5.66;-18.08
132.53;14.05;11.54;25.92;-7.30;39.10
96.27;22.87;22.87;-3.92;19.28;37.57
-1.20;-11.76;-0.54;-40.18;-5.66;16.55
2.83;-23.85;-19.06;-32.89;-7.30;-47.04
-0.33;-16.55;-10.24;-10.35;11.98;-114.78
64.03;-14.16;-0.54;11.33;29.73;-119.57
147.89;40.62;25.26;33.11;16.88;-185.67
0.44;6.75;3.48;-49.00;8.82;-69.59
-73.73;-19.82;-15.90;-73.18;-46.83;-137.32
32.67;-12.52;-12.63;-68.39;-37.90;35.07
89.08;23.74;-11.00;-17.64;-19.38;98.01
74.60;33.43;-2.18;4.14;-10.56;76.99
-126.87;16.44;-27.99;13.83;-3.27;120.55
-68.82;-27.01;-4.57;13.83;-5.66;2.07
-116.41;-80.26;-0.54;11.33;-2.50;-49.44
4.46;-9.26;9.91;26.68;14.48;-75.25
173.70;38.99;30.06;61.31;56.30;-95.40
119.68;37.46;40.51;48.46;38.66;-88.10
-126.11;-1.31;-7.84;15.35;-6.53;-49.44
1.20;3.59;-0.54;26.68;-13.72;78.63
7.73;-5.34;-0.54;9.80;-6.53;156.82
55.97;4.36;0.22;2.50;8.82;139.07
93.11;18.08;1.09;19.38;10.45;108.46
40.73;7.62;-1.31;-14.37;-2.50;-18.08
123.71;-14.16;-24.72;-32.89;-21.02;-18.84
-39.86;-18.19;-21.45;-16.01;-7.30;19.82
-101.06;-35.07;-20.69;8.93;22.54;49.66
93.11;14.05;43.78;-11.98;10.45;67.30
120.44;18.08;34.09;-31.36;-8.17;1.31
47.15;-6.10;-0.54;-38.55;-0.11;-21.24
-171.95;5.23;7.51;4.14;14.48;-1.96
-315.37;30.17;-15.90;24.28;28.97;-87.34
-228.36;5.23;-26.35;-24.83;-15.35;-152.57
-40.62;-27.01;-33.54;-40.18;-48.35;-70.46
-1.20;-94.74;-0.54;-30.49;-18.62;27.88
55.21;-1.31;9.91;-1.52;12.85;96.38
187.31;7.62;40.51;24.28;23.30;92.35
130.14;-71.33;10.78;24.28;20.04;132.64
21.34;-83.42;5.12;18.62;11.22;109.23
28.64;-52.82;-2.18;19.38;5.55;70.57
-76.12;-20.58;-30.38;0.87;1.52;-28.53
-34.19;100.30;-15.90;41.16;-5.66;-101.06
32.67;117.94;-14.27;29.95;-22.65;-175.11
-117.18;68.06;14.81;0.11;-21.02;-184.04
54.45;87.34;15.57;23.41;-23.41;-101.06
17.32;22.11;21.24;16.99;0.76;11.00
-159.10;-72.20;-18.30;-7.95;37.79;81.89
-26.14;-75.36;-27.99;-41.82;22.54;81.02
301.76;-1.31;-19.06;-48.24;5.55;86.68
201.90;4.36;32.45;-35.39;1.52;32.67
-16.44;3.59;11.54;-20.04;3.92;1.31
15.79;31.80;8.28;-14.37;3.92;-5.99
-22.11;6.75;0.22;33.11;4.79;-12.41
-101.93;13.29;-1.31;33.11;2.40;-32.56
-155.84;16.44;-15.03;17.86;-4.90;-41.38
-130.14;19.71;-17.42;7.30;-12.96;-13.18
197.87;-22.22;-23.96;-0.65;-28.31;4.46
88.21;-183.39;-22.32;-22.43;-21.02;42.36
80.15;-122.08;-5.34;-34.52;4.79;78.63
50.42;5.99;10.78;-12.74;12.85;65.78
6.10;60.77;17.21;11.33;15.25;12.52
-102.69;71.22;13.94;11.33;13.61;-27.77
-175.22;62.40;3.48;-12.74;-8.93;-49.44
-94.63;98.66;-0.54;-26.46;-15.35;-47.92
29.40;37.46;-4.57;-13.61;3.16;-66.43
20.58;-96.38;8.28;-1.52;-4.90;-92.13
-6.86;-109.23;0.22;0.87;4.79;-27.77
80.15;-59.24;-0.54;10.56;4.79;-4.36
3.70;-43.12;5.12;16.99;-4.14;32.67
-105.09;89.73;38.99;-4.68;-2.50;92.35
57.61;153.44;36.48;38.01;1.52;133.40
6.10;109.12;11.54;21.89;4.79;105.96
93.11;-8.49;-11.00;-0.65;4.79;33.54
-50.31;-27.88;-26.35;-14.37;-16.23;-11.65
-228.36;-49.55;-17.42;15.35;-12.96;-18.08
-133.29;-22.22;-26.35;37.13;-6.53;-18.08
16.55;-34.30;-20.69;81.46;45.85;-18.84
134.16;-1.31;-10.24;98.34;35.39;-92.13
132.53;22.87;0.22;77.43;29.73;-105.09
10.89;11.65;-6.21;51.62;2.40;-166.29
-72.09;-9.26;-26.35;-14.37;-49.22;-95.40
-64.03;8.39;-9.37;-34.52;-33.11;8.49
-12.41;4.36;51.84;-67.63;-31.47;86.68
76.99;-2.07;40.51;-104.65;-18.62;131.01
44.76;10.02;3.48;-206.15;-29.08;93.98
-68.82;-24.61;-8.60;-208.54;-41.93;-10.02
-9.26;-28.64;-14.27;-99.75;-26.68;3.70
44.76;-9.26;-0.54;-14.37;4.79;25.48
171.19;18.84;5.12;38.01;28.97;2.07
170.43;-3.70;11.54;79.06;38.66;7.73
20.58;-2.83;2.72;58.91;56.30;17.42
-73.73;-19.82;-0.54;29.08;32.13;-18.08
-47.92;-33.43;-19.06;15.35;3.16;-57.50
11.76;-21.34;-15.90;29.08;-9.69;-8.39
55.21;-5.34;-7.84;35.50;8.82;-10.78
53.58;21.34;-2.18;12.20;2.40;-18.84
2.83;0.33;-4.57;27.44;-4.90;-6.75
-73.73;-6.86;0.22;5.77;-8.93;-29.29
-47.92;8.39;4.25;35.50;-7.30;-22.11
57.61;30.93;8.28;12.20;4.79;-37.35
71.33;47.04;3.48;-14.37;3.92;-40.62
55.21;31.80;0.22;-11.98;-12.96;-26.90
-19.71;18.08;14.81;7.30;-19.38;2.07
-24.50;18.08;11.54;21.89;0.76;55.21
-114.02;-5.34;0.22;13.83;-0.87;77.86
-73.73;-58.48;-0.54;11.33;19.28;114.02
-36.59;-108.36;-7.84;10.56;4.79;52.05
31.04;-22.22;-24.72;4.14;-4.90;-1.96
132.53;16.44;-6.21;13.83;32.13;-13.18
106.83;30.93;25.26;8.93;16.88;-74.49
18.19;5.99;5.12;-28.10;2.40;-88.97
-40.62;-32.67;-17.42;-28.86;-5.66;-63.16
-139.72;-58.48;-1.31;-20.04;-6.53;-13.18
-24.50;-37.46;-0.54;-0.65;3.16;25.48
-49.55;-28.64;3.48;9.80;7.19;78.63
6.10;-10.13;-24.72;-5.55;-8.93;87.45
-8.39;101.06;-38.44;-32.13;-4.90;53.69
1.20;136.56;-31.15;13.83;4.79;29.51
89.84;85.70;52.60;35.50;7.19;19.82
104.33;-63.27;17.21;51.62;2.40;-28.53
46.39;-48.79;20.36;44.43;-13.72;-39.86
-22.98;-31.04;19.60;21.89;-4.14;-45.41
15.79;-43.12;4.25;1.74;-4.14;-30.93
56.85;18.84;16.33;2.50;9.58;-23.74
31.04;34.96;12.31;-16.77;17.64;-38.99
62.51;14.05;8.28;-49.88;-8.93;-87.34
-22.11;14.81;4.25;-70.02;-4.14;-50.31
-19.71;18.08;3.48;-66.76;-11.33;-13.18
64.03;-2.07;-0.54;-76.45;3.92;30.27
26.24;-34.30;-2.94;-11.98;4.79;36.70
-13.29;-28.64;-12.63;27.44;-2.50;26.24
-101.06;-43.12;-15.90;36.37;-3.27;4.46
-98.66;-28.64;-2.94;33.98;-13.72;2.94
14.92;-6.86;-2.18;27.44;0.76;40.73
34.30;-3.70;-2.18;12.96;6.43;68.17
-13.29;-9.26;-11.00;4.90;-2.50;52.82
-81.78;-6.86;1.09;9.80;-1.63;16.55
-97.03;3.59;5.88;4.14;4.79;38.33
-62.40;-1.31;3.48;0.11;-7.30;52.82
-3.59;-3.70;-4.57;-11.98;-9.69;27.88
-11.65;-1.31;-6.21;-9.58;-7.30;19.82
101.93;31.80;-3.81;-9.58;2.40;15.79
184.91;32.56;-12.63;4.14;3.92;11.00
-36.59;21.34;1.85;12.20;8.82;-36.59
16.55;26.14;0.22;16.23;5.55;-63.16
55.21;33.43;1.09;13.83;-0.11;-83.31
47.15;27.77;21.24;2.50;-13.72;-144.51
-22.98;-14.16;-5.34;-1.52;-33.87;-143.75
-32.56;-88.32;-13.39;7.30;-15.35;-101.06
-134.06;-143.09;-22.32;-1.52;-2.50;-13.18
-171.95;-44.76;37.35;-10.35;0.76;81.02
-72.09;14.81;63.92;-14.37;7.19;122.08
93.87;12.41;30.06;3.38;18.51;131.01
104.33;5.99;7.51;7.30;10.45;114.02
31.91;5.99;-2.94;2.50;13.61;41.60
-90.60;10.78;-2.94;8.17;6.43;-2.72
-47.04;13.29;-4.57;6.53;11.98;-10.78
-74.49;11.65;2.72;10.56;-3.27;-23.74
-14.92;22.87;4.25;10.56;-12.20;-85.70
68.93;5.99;-15.03;-12.74;-25.81;-62.40
68.06;6.75;-14.27;-8.71;-21.02;-21.24
-4.36;3.59;-2.94;-3.92;-4.14;-14.81
1.20;8.39;13.18;-0.65;13.61;27.88
34.30;18.84;13.94;11.33;30.60;29.51
-27.01;8.39;14.81;12.20;29.73;64.14
-45.52;0.33;-11.00;-2.29;5.55;-14.81
-68.82;-15.79;-12.63;10.56;-0.11;-22.87
-45.52;-5.34;-7.84;16.23;9.58;-49.44
0.44;-6.10;-6.21;5.77;2.40;-32.56
3.70;-9.26;-0.54;3.38;7.19;-23.74
9.26;-31.91;1.85;-10.35;6.43;-6.75
-22.98;5.99;-2.18;-6.32;-3.27;7.73
43.12;-2.83;-11.00;-10.35;-3.27;-19.71
-9.26;5.23;-7.84;-4.68;-0.11;-50.31
-0.33;10.02;-7.84;-34.52;3.16;27.88
81.02;29.40;4.25;-3.16;-4.14;30.27
23.85;31.80;4.25;0.87;-8.93;81.89
-3.59;-70.57;6.75;11.33;1.52;48.79
-151.04;-41.49;-0.54;12.96;5.55;2.94
-64.03;19.71;7.51;-7.19;-8.93;-64.80
-23.74;43.02;2.72;-10.35;-21.78;-61.53
-10.89;83.31;8.28;-3.92;-12.96;-1.09
-43.89;53.58;17.97;3.38;-8.93;44.76
-51.95;-69.70;-2.94;-12.74;-4.14;71.33
-35.07;-138.19;16.33;-16.77;4.79;80.26
-47.04;-56.08;-1.31;2.50;4.79;39.10
-10.89;8.39;17.97;11.33;-6.53;-37.35
-37.46;8.39;-20.69;12.96;-21.02;-24.50
-5.99;5.99;0.22;16.99;-16.99;-26.14
70.57;8.39;6.75;-2.29;-0.11;0.44
81.02;18.84;9.15;-3.16;17.64;15.79
55.21;15.68;5.12;7.30;21.67;11.00
27.01;9.26;7.51;11.33;19.28;-26.14
15.79;14.05;10.78;4.90;17.64;-25.26
-9.26;2.72;5.12;-14.37;8.82;-0.33
42.36;8.39;-20.69;-8.71;4.79;-6.75
18.19;1.96;-24.72;-16.77;-8.93;-15.68
11.76;-17.32;-30.38;-21.67;-1.63;-2.72
-27.01;-31.91;-17.42;8.17;-1.63;4.46
16.55;-1.31;-12.63;8.93;-0.87;104.44
25.37;-2.07;-9.37;7.30;-5.66;100.41
-73.73;5.99;-13.39;8.93;4.79;53.69
-109.99;-6.86;-0.54;11.33;8.82;92.35
-80.91;-24.61;-12.63;8.93;7.19;6.10
-70.46;5.99;7.51;11.33;2.40;-69.59
-10.89;5.99;8.28;8.93;-12.96;-141.35
200.27;10.02;24.39;10.56;-31.47;-126.87
179.25;5.99;11.54;5.77;-21.78;-95.40
31.04;-6.86;17.97;11.33;4.79;-126.87
-43.89;0.33;19.60;1.74;7.95;-60.00
-33.43;-7.73;12.31;0.87;0.76;-12.41
-5.23;5.23;20.36;3.38;-11.33;23.85
-24.50;-4.46;0.22;0.11;-2.50;27.01
15.79;-15.79;-17.42;-28.86;4.79;66.54
28.64;-6.10;-20.69;-49.00;7.19;96.38
-39.86;-6.86;-11.87;-44.98;7.19;90.71
25.37;3.59;5.12;-20.80;20.91;79.39
-47.92;1.96;5.12;-24.83;9.58;-9.15
-114.02;4.36;1.85;9.80;3.92;-79.28
-63.16;7.62;9.15;20.26;-17.75;-127.63
-3.59;12.41;6.75;50.86;-12.96;-113.15
93.87;4.36;2.72;24.28;-19.38;-48.68
135.80;12.41;1.09;0.87;-15.35;23.85
-49.55;1.96;-37.57;9.80;-4.14;51.18
-55.10;-6.86;-30.38;-1.52;1.52;31.91
93.87;-6.86;1.85;-5.55;-0.87;27.88
97.14;-11.76;-7.84;-14.37;-21.02;13.39
-97.03;14.05;-23.96;-14.37;3.92;19.82
-156.71;-30.27;-23.09;-34.52;4.79;35.94
-118.05;-45.52;27.66;5.77;12.85;64.14
-24.50;-6.86;52.60;2.50;12.85;56.08
76.12;83.31;48.57;12.20;7.19;32.67
38.33;26.14;42.14;23.41;17.64;17.42
5.23;23.74;35.72;11.33;4.79;1.31
123.71;22.87;4.25;-1.52;-9.69;-15.68
118.05;14.81;-15.03;26.68;-7.30;-14.81
-52.71;22.87;-9.37;11.33;13.61;6.97
-43.89;17.32;-29.51;11.33;24.94;11.76
-84.18;-32.67;-40.08;-2.29;2.40;-16.44
-145.38;-101.17;-28.75;-1.52;7.19;12.52
-34.19;-34.30;-19.06;7.30;-8.17;-44.65
-14.05;5.99;-12.63;-3.92;-6.53;-76.12
-10.02;28.53;1.09;11.33;0.76;-70.46
16.55;-27.88;5.12;-0.65;11.22;-58.37
-120.44;-10.13;9.15;-3.16;4.79;-35.83
-44.65;0.33;4.25;-11.98;-4.14;16.55
55.97;10.02;3.48;-18.40;-21.02;39.97
47.92;23.74;8.28;-0.65;-23.41;41.60
3.70;42.25;-0.54;-10.35;-19.38;53.69
-68.06;-20.58;-1.31;-7.19;-8.93;24.61
-122.08;-9.26;1.85;8.93;1.52;4.46
-85.81;3.59;-0.54;19.38;16.88;33.54
-85.81;5.99;1.85;18.62;9.58;25.48
-79.28;-10.89;4.25;42.04;-12.20;9.37
-107.48;-2.07;3.48;25.05;-4.14;25.48
-135.69;-33.43;0.22;20.26;10.45;4.46
-161.50;6.75;0.22;11.33;-0.87;-24.50
-230.76;-9.26;1.85;50.09;-1.63;-101.06
-202.55;1.96;-0.54;-1.52;-10.56;-88.97
-179.25;1.20;-0.54;-18.40;-12.20;-58.37
-176.85;4.36;-0.54;-44.98;-4.90;-1.09
-174.35;5.99;-0.54;-8.71;-4.90;81.89
-176.85;9.26;-5.34;-13.61;6.43;118.05
-127.63;10.02;-24.72;-40.95;3.16;101.17
-159.87;8.39;-15.03;-36.15;4.79;128.61
-93.00;2.72;11.54;-27.33;-6.53;33.54
-31.04;7.62;9.91;-28.86;5.55;-36.59
10.89;-6.10;4.25;-1.52;8.82;-23.74
47.92;-6.10;-5.34;-3.92;2.40;-21.24
4.46;-31.04;-4.57;-2.29;-2.50;-37.35
60.88;-19.82;-5.34;4.14;-0.87;-101.82
-25.37;14.05;-2.94;14.59;-5.66;-34.19
69.70;26.90;-0.54;23.41;-7.30;-20.47
166.40;5.99;1.85;29.95;30.60;-24.50
105.20;5.23;2.72;21.89;13.61;-47.04
377.45;19.71;3.48;-18.40;4.79;-31.80
192.21;-1.31;-2.94;11.33;2.40;6.10
218.78;-0.44;0.22;8.17;-12.96;58.48
261.47;7.62;3.48;3.38;-21.78;96.38
188.18;5.23;-0.54;-0.65;-10.56;54.45
119.68;0.33;-1.31;-12.74;-16.23;-50.31
105.20;18.08;-4.57;19.38;-19.38;-83.31
84.18;-7.73;1.09;-13.61;-8.17;-75.25
117.29;15.68;5.12;4.14;4.79;6.10
105.20;10.02;9.91;9.80;8.82;80.26
17.32;3.59;7.51;6.53;18.51;78.63
-31.04;-4.46;-1.31;-1.52;7.19;76.99
-66.43;-2.83;-9.37;-7.19;16.01;3.70
21.34;-22.22;-14.27;-6.32;20.04;-49.44
117.29;-6.10;1.09;36.37;5.55;-66.43
184.91;-5.34;-2.18;18.62;-25.05;-38.99
132.53;-23.85;-26.35;-6.32;-30.71;27.88
114.89;-15.79;-17.42;-8.71;-13.72;73.83
83.42;-11.76;-0.54;-0.65;0.76;11.00
31.91;-6.86;-3.81;14.59;4.79;-32.56
-0.33;8.39;4.25;29.08;13.61;-48.68
29.40;6.75;-0.54;12.96;6.43;-54.34
97.90;5.99;-5.34;28.31;5.55;-57.50
83.42;5.99;-17.42;25.05;20.04;-18.08
96.27;4.36;1.09;-1.52;20.04;44.00
125.34;-7.73;-12.63;-24.83;7.95;93.11
102.80;-6.86;44.54;-10.35;-6.53;57.72
57.61;-8.49;46.17;-31.36;-32.34;-14.81
35.07;7.62;13.18;-55.54;-20.26;15.79
-19.71;4.36;-15.03;-44.98;-24.28;2.07
28.64;18.08;-16.66;-37.79;-21.78;-75.25
3.70;-8.49;-13.39;-3.16;-18.62;-95.40
-114.78;17.32;-12.63;-4.68;-31.47;-82.55
31.04;41.49;6.75;11.33;17.64;3.70
175.22;-35.07;14.81;27.44;35.39;32.67
24.61;-71.33;7.51;17.86;20.04;-44.65
-55.97;-7.73;6.75;11.33;-4.90;-77.65
-7.62;14.81;0.22;-5.55;-3.27;-38.99
-51.95;-1.31;-8.60;2.50;3.92;-3.59
-118.05;5.99;-4.57;9.80;16.01;53.69
29.40;2.72;-15.03;8.93;-4.90;92.35
175.22;7.62;-14.27;6.53;16.01;141.46
176.09;40.62;-4.57;7.30;17.64;93.11
158.34;17.32;-8.60;21.89;-0.11;52.05
68.93;17.32;17.21;16.23;-16.23;-18.08
-31.80;14.05;11.54;13.83;-9.69;-23.74
-22.11;5.99;10.78;4.14;-9.69;-13.18
60.00;36.59;5.12;-7.19;4.79;-1.96
36.70;5.99;0.22;0.87;-2.50;-9.15
2.83;2.72;0.22;-34.52;-8.17;-11.65
-47.04;-5.34;11.54;-2.29;-5.66;26.24
-138.09;-19.82;-9.37;0.11;-4.14;30.27
-197.00;-2.83;-11.87;-8.71;-6.53;26.24
-167.92;5.23;-5.34;-5.55;-5.66;-11.65
-73.73;-6.10;-2.94;7.30;-0.11;2.07
124.47;-8.49;5.88;10.56;7.19;-8.39
228.47;-30.27;-1.31;37.13;1.52;-47.92
257.44;-18.95;-0.54;-0.65;9.58;-64.03
53.58;-19.82;4.25;11.33;10.45;-35.83
-114.78;-22.22;4.25;28.31;4.79;-23.74
-88.21;-14.92;8.28;2.50;-16.23;-47.92
-110.75;5.99;7.51;-40.18;-25.05;-8.39
-93.87;71.22;23.63;-31.36;-21.02;-13.18
15.79;83.31;22.87;-16.77;-6.53;35.94
37.46;-9.26;11.54;-4.68;10.45;62.51
90.71;18.08;0.22;12.20;12.85;44.76
63.27;5.99;-24.72;14.59;-2.50;7.73
10.89;5.99;-40.84;13.83;4.79;-23.74
-129.26;16.44;-39.20;35.50;8.82;-26.14
-151.04;105.09;-8.60;20.26;10.45;-37.35
-37.46;1.96;-8.60;12.20;13.61;-34.96
59.24;-72.20;5.12;5.77;6.43;-6.75
17.32;-96.38;7.51;6.53;0.76;7.73
-43.89;-14.16;8.28;22.65;-24.28;27.88
-30.17;5.23;10.78;16.23;-29.08;4.46
-77.75;5.99;-0.54;-13.61;-9.69;-32.56
-98.66;5.99;1.09;-20.04;-10.56;-23.74
-95.40;6.75;-0.54;-44.21;-7.30;2.07
-126.11;-6.10;0.22;-31.36;-2.50;41.60
-40.62;-27.01;-31.15;-25.70;3.92;64.90
68.06;-97.90;0.22;-12.74;4.79;120.55
60.00;-41.49;8.28;18.62;19.28;142.22
147.01;14.81;14.81;8.93;7.19;80.26
22.22;23.74;6.75;-10.35;-0.87;23.85
-44.65;24.50;13.18;-21.67;-6.53;-57.50
181.75;43.02;38.11;-3.92;-7.30;-111.51
77.75;34.96;17.97;11.33;-6.53;-109.12
-0.33;18.08;-26.35;12.20;-9.69;-75.25
-24.50;20.47;-60.11;12.20;0.76;-21.24
-88.97;11.65;-62.62;5.77;-16.23;-87.34
-99.43;-6.10;-49.66;0.11;-6.53;-140.48
-93.87;-8.49;5.12;8.17;-2.50;-114.78
-61.64;-18.95;-18.30;6.53;3.16;-37.35
-51.95;-18.95;50.97;11.33;13.61;14.92
-20.47;-3.70;67.95;21.89;13.61;86.68
57.61;5.99;25.26;9.80;16.01;192.97
55.21;-6.10;0.22;11.33;4.79;183.39
3.70;-2.83;-10.24;27.44;16.01;107.59
-16.44;-1.31;-11.87;39.53;3.92;27.88
-26.14;21.34;-13.39;39.53;6.43;-23.74
27.88;21.34;-3.81;21.89;3.16;-44.65
-2.83;31.80;9.91;12.20;0.76;-35.83
-29.40;44.65;11.54;-16.77;-8.17;-35.83
10.89;55.10;4.25;-39.42;-29.08;-25.26
-37.46;59.13;3.48;-42.58;-0.11;1.31
-22.11;-56.85;-0.54;-27.33;-10.56;-10.78
-34.19;-139.07;-3.81;-23.30;-10.56;2.07
-37.46;-48.02;-17.42;-34.52;-7.30;-12.41
-36.59;5.99;-16.66;-65.99;-18.62;-18.08
-30.17;5.23;-18.30;-65.12;-18.62;-22.11
-22.11;14.05;-15.03;0.87;-1.63;-10.78
22.22;47.92;4.25;12.20;21.67;22.22
33.43;43.89;1.09;12.20;52.27;18.95
2.83;-18.95;9.15;0.87;20.04;4.46
19.82;-81.02;14.81;-10.35;10.45;17.42
-72.85;-68.93;3.48;-1.52;1.52;33.54
-153.44;-27.01;1.85;11.33;-4.90;6.97
-138.09;5.23;4.25;37.13;3.16;-1.96
-47.92;9.26;8.28;10.56;-0.11;-22.11
16.55;24.50;7.51;11.33;2.40;-33.32
38.33;16.44;8.28;12.96;4.79;-23.74
63.27;22.11;-14.27;12.96;7.19;-75.25
97.90;45.52;-10.24;10.56;-2.50;-56.74
44.00;19.71;-1.31;12.20;-5.66;-1.96
4.46;13.29;-1.31;10.56;-4.90;36.70
-97.90;5.99;-0.54;11.33;-12.20;26.24
-81.78;5.99;10.78;1.74;-0.11;101.17
-55.97;-4.46;-4.57;-0.65;-0.11;27.88
-33.43;-6.86;-26.35;37.13;-2.50;-23.74
106.83;8.39;-11.87;0.87;-9.69;-79.28
-39.10;-8.49;1.85;7.30;-5.66;-64.03
-84.94;-1.31;8.28;3.38;3.16;-0.33
-68.06;-10.89;11.54;-20.04;4.79;64.90
-14.05;-20.58;9.15;-14.37;-20.26;82.66
62.51;-10.89;9.91;-24.83;-12.96;79.39
33.43;-2.83;14.81;-3.16;-3.27;35.94
128.50;11.65;10.78;0.87;26.57;-1.09
259.84;37.46;14.81;12.20;32.13;-50.31
170.43;31.80;-4.57;10.56;18.51;-116.31
-26.14;5.23;-0.54;0.11;13.61;-64.03
-180.01;-4.46;-2.94;-14.37;22.54;14.16
-254.93;-41.49;1.85;6.53;14.48;48.79
-242.85;-7.73;2.72;2.50;-16.23;13.39
-120.44;-7.73;-8.60;-8.71;-21.02;-10.02
76.99;11.65;-2.94;-0.65;-8.93;-9.15
93.11;-1.31;1.85;2.50;-4.90;-14.05
31.91;6.75;0.22;10.56;-0.87;2.07
56.85;1.96;-0.54;10.56;-16.23;40.73
1.20;-1.31;-0.54;0.11;-12.20;39.97
-20.47;-2.07;-0.54;-1.52;-18.62;53.69
-12.41;-6.86;-2.94;-16.77;-16.99;23.85
-140.59;-8.49;-0.54;-17.64;-12.20;-5.99
-81.78;5.99;34.96;-24.83;-0.11;-12.41
-68.06;1.96;-13.39;-30.49;3.16;-58.37
34.30;-7.73;-4.57;-20.04;-10.56;-75.25
55.21;-14.16;-5.34;-14.37;-0.87;-55.10
19.82;-1.31;0.22;-15.25;8.82;-34.96
-168.79;-12.52;8.28;-3.16;-3.27;-18.08
-166.29;1.20;-11.87;3.38;3.92;44.00
-17.32;-1.31;4.25;16.99;12.85;117.29
64.03;7.62;21.24;12.96;-4.90;105.96
150.28;14.05;16.33;6.53;-15.35;15.79
-37.46;-1.31;-19.06;14.59;-6.53;-49.44
-64.03;-22.98;-4.57;23.41;17.64;2.94
33.43;8.39;-12.63;9.80;15.25;27.88
68.06;6.75;-33.54;26.68;3.92;6.97
54.45;-4.46;-44.10;-15.25;-9.69;2.94
46.39;74.49;0.22;-6.32;4.79;11.00
64.03;134.93;60.66;-9.58;11.98;11.00
51.95;-0.44;42.91;6.53;3.16;19.82
22.22;-102.80;5.12;-10.35;-25.81;-5.99
-19.71;-110.86;-17.42;2.50;-21.02;-9.15
-3.59;-22.22;-5.34;10.56;3.16;-22.11
5.23;24.50;1.09;9.80;3.92;-42.25
81.02;-4.46;-11.00;-7.19;-8.93;-47.04
114.02;-15.79;-18.30;-7.19;-0.87;-24.50
53.58;-10.89;-9.37;-2.29;4.79;-41.38
-121.21;-2.07;-4.57;-12.74;4.79;-34.19
-201.03;14.05;5.12;21.89;4.79;-25.26
-197.76;-2.83;-4.57;11.33;-23.41;-34.19
-105.09;1.20;-0.54;-2.29;3.92;11.00
244.59;26.14;11.54;31.47;0.76;16.55
44.00;3.59;-0.54;9.80;-7.30;2.07
27.88;4.36;4.25;-2.29;-21.78;1.31
240.56;2.72;1.09;8.93;-8.93;26.24
108.36;-19.82;-14.27;-20.04;-8.93;39.97
22.98;-6.86;-11.87;-23.30;0.76;67.30
56.85;23.74;12.31;-9.58;26.57;90.71
-88.97;34.19;20.36;11.33;9.58;57.72
-156.71;5.99;8.28;8.93;-4.90;10.13
-85.81;-1.31;13.94;1.74;-9.69;-38.99
40.73;-6.86;33.32;8.93;9.58;-85.70
95.51;8.39;10.78;12.96;17.64;-34.96
-108.36;6.75;1.09;8.93;7.19;-49.44
31.04;-12.52;-15.03;-12.74;-3.27;-36.59
209.96;-19.82;-1.31;-3.92;-0.11;6.97
164.00;-15.79;-6.97;-6.32;-9.69;-34.19
13.29;-6.86;-11.87;-32.13;-5.66;-62.40
-16.44;7.62;-1.31;1.74;8.82;-38.99
55.21;46.28;8.28;14.59;15.25;-10.02
3.70;14.81;-5.34;29.95;2.40;25.48
-0.33;13.29;-11.87;38.77;-19.38;72.20
74.60;5.99;-7.84;-15.25;-12.96;87.45
32.67;-2.83;-17.42;-40.18;-19.38;94.74
16.55;-22.98;-7.84;-26.46;-21.02;78.63
3.70;-94.74;-0.54;-19.28;-32.34;7.73
-32.56;-28.64;7.51;-62.73;-0.11;-26.14
-18.08;18.08;7.51;-53.91;4.79;-11.65
6.10;23.74;13.18;-14.37;10.45;-7.62
-22.11;14.81;5.88;15.35;7.19;4.46
26.24;5.99;1.85;25.92;4.79;-1.96
18.19;-14.16;-8.60;20.26;-4.90;39.97
44.00;-2.07;1.09;25.92;-3.27;26.24
-30.17;-20.58;-20.69;-1.52;-9.69;-34.96
-111.51;-27.01;-33.54;-28.10;-5.66;-70.46
-88.21;-15.79;-17.42;-13.61;-7.30;-75.25
38.33;5.99;4.25;-28.86;2.40;-56.74
166.40;5.99;12.31;11.33;4.79;-68.82
99.53;4.36;12.31;16.99;16.01;27.01
79.39;-2.07;15.57;20.26;9.58;96.38
85.05;13.29;20.36;22.65;38.66;94.74
29.40;23.74;21.24;18.62;15.25;-14.81
-14.92;5.99;-0.54;9.80;-11.33;-49.44
-62.40;-6.10;-2.18;10.56;-5.66;-66.43
-35.83;13.29;-0.54;11.33;-21.02;-101.06
-1.20;24.50;2.72;2.50;-41.16;-92.13
-4.36;14.81;9.91;4.14;-22.65;-49.44
-21.34;8.39;-18.30;-0.65;-12.96;23.85
-35.07;20.47;-12.63;-24.83;-0.11;11.00
-24.50;18.84;-12.63;-13.61;-2.50;17.42
12.52;24.50;-4.57;-3.92;4.79;105.20
37.46;30.17;-4.57;-2.29;17.64;164.00
63.27;37.46;-20.69;-12.74;8.82;119.68
62.51;31.80;-20.69;-1.52;4.79;92.35
-84.18;1.96;38.99;11.33;3.92;-5.99
-165.53;-154.31;38.11;15.35;12.85;-95.40
-138.96;-109.99;22.00;24.28;14.48;-92.13
-43.89;-33.43;6.75;4.90;-0.11;-82.55
-3.59;-14.16;-11.00;-1.52;-2.50;-18.84
39.97;1.96;-3.81;-4.68;10.45;31.04
30.27;19.71;-2.18;-16.01;0.76;46.39
15.79;19.71;-7.84;-22.43;-5.66;39.10
33.43;5.23;-7.84;-19.28;-4.14;-5.99
-22.11;24.50;-5.34;-16.77;3.92;-31.80
-76.12;7.62;-5.34;-9.58;-3.27;-41.38
-51.95;18.84;-2.94;-4.68;3.92;-38.99
42.36;14.05;-2.94;26.68;-11.33;-30.93
68.93;-8.49;1.09;16.23;-8.93;13.39
43.12;27.77;0.22;4.14;-12.20;44.76
81.02;-2.83;3.48;-3.16;-5.66;71.33
-30.17;6.75;-4.57;-3.92;-10.56;30.27
-113.15;-36.70;-10.24;-3.16;7.95;17.42
-25.37;-2.83;11.54;33.98;8.82;-23.74
-72.09;-31.91;-1.31;3.38;-8.17;-35.83
-90.60;-58.48;-17.42;-4.68;4.79;-23.74
24.61;-45.52;-12.63;7.30;17.64;10.13
10.89;-39.97;4.25;11.33;8.82;14.16
-33.43;-36.70;7.51;11.33;10.45;31.04
13.29;-10.89;13.18;19.38;33.00;65.78
176.85;91.37;17.97;12.20;28.10;31.04
151.04;82.55;9.91;23.41;13.61;-9.15
