-16.88;-31.58;-39.20;-2.29;4.79;-45.96
-14.48;-30.71;-32.78;-1.52;-15.35;-70.13
-14.48;-29.08;-27.12;-1.52;6.43;-62.07
-13.72;-17.86;-16.66;-3.16;4.79;-28.21
3.27;-10.56;-5.34;0.11;15.25;31.36
18.51;1.52;3.48;3.38;15.25;53.14
41.06;40.18;23.63;22.65;7.19;34.63
20.15;19.17;29.29;5.77;3.16;55.54
34.63;31.25;44.65;4.90;-2.40;66.86
23.41;46.61;47.04;-15.25;-2.40;78.95
8.06;32.89;35.72;-3.16;-0.00;50.75
-5.66;28.86;36.59;5.77;-4.03;16.88
2.40;28.10;25.26;21.02;-0.87;9.58
-2.40;24.07;19.60;4.90;-15.35;-4.03
-4.03;11.11;6.75;-2.29;-3.27;-19.38
-5.66;5.55;-10.13;1.74;-5.66;-28.21
-11.22;-7.41;-29.51;-0.65;-6.43;-38.66
-14.48;-20.26;-32.78;-5.55;-18.51;-41.93
-4.03;-28.31;-41.60;-1.52;-0.87;-46.72
-8.82;-35.61;-47.26;-2.29;4.79;-35.50
-4.79;-31.58;-40.84;16.23;14.48;-44.32
3.27;-31.58;-38.33;-3.92;11.22;-49.99
1.63;-15.46;-27.88;-2.29;6.43;-45.19
-10.45;-20.26;-16.66;-23.20;6.43;-33.11
-14.48;-7.41;-2.07;-0.65;4.79;-11.33
-14.48;6.32;21.24;1.74;4.79;16.12
-4.79;12.74;22.11;2.50;0.76;39.42
-8.06;17.64;33.32;4.90;0.76;65.99
-6.43;28.86;48.68;4.90;4.03;78.08
8.06;32.13;46.17;8.17;2.40;58.81
13.72;32.89;42.14;0.87;-6.43;42.69
10.45;31.25;38.11;0.87;-6.43;31.36
15.35;31.25;30.06;3.38;-12.09;16.88
27.44;20.80;17.21;33.98;-2.40;-0.87
10.45;13.61;2.72;27.55;-1.63;-33.11
-5.66;-1.74;-11.76;-3.16;-0.00;-49.99
-16.88;-11.43;-22.22;1.74;-8.06;-49.99
13.72;-21.02;-32.78;0.87;-3.27;-49.99
32.23;-32.34;-44.00;-6.32;-4.03;-44.32
39.53;-32.34;-42.36;-2.29;4.03;-24.18
7.30;-33.11;-42.36;-3.16;7.19;-18.51
-50.75;-24.28;-39.97;-4.68;7.19;-10.56
-39.42;12.74;-34.30;-6.32;7.19;5.55
-47.48;-21.02;-21.45;-3.92;5.66;16.12
-78.19;-20.26;-9.37;0.11;12.85;32.23
-22.54;-6.53;6.75;-2.29;5.66;18.51
-4.03;10.35;22.11;2.50;4.79;1.52
8.82;17.64;25.26;3.38;4.79;-3.27
24.94;30.49;40.62;7.41;-2.40;9.58
24.18;32.89;53.47;2.50;-3.27;9.58
14.48;34.52;38.11;-4.68;-2.40;26.57
28.97;31.25;52.71;7.41;-7.30;27.33
25.81;26.46;35.72;2.50;-13.72;-22.54
24.18;24.07;22.87;8.17;-34.63;-16.12
12.09;11.98;-0.54;-2.29;-6.43;-4.03
5.66;1.52;-11.76;-7.95;20.15;0.76
-5.66;-6.53;-21.45;-3.92;-10.45;2.40
-20.15;-15.46;-34.30;-2.29;2.40;-0.00
-16.88;-25.05;-44.87;-1.52;3.16;-3.27
-20.15;-28.31;-44.87;-2.29;6.43;4.03
-20.91;-44.43;-37.57;-3.16;9.69;-2.50
1.63;-36.37;-39.97;25.05;6.43;-12.09
33.00;-27.55;-27.12;-2.29;8.06;2.40
3.27;-20.26;-15.79;-2.29;12.85;21.67
13.72;13.61;-1.31;-3.16;7.19;6.43
11.33;3.92;8.39;0.87;4.79;5.55
16.12;5.55;14.05;-0.65;4.79;4.03
4.79;16.01;34.09;0.87;-2.40;13.61
4.03;30.49;46.17;-6.32;-0.87;20.15
5.66;33.76;55.87;8.17;-13.72;20.15
8.82;24.07;26.90;2.50;-7.30;2.40
3.27;38.55;36.59;6.53;-16.12;-8.93
3.27;31.25;27.66;-1.52;-7.30;-7.30
3.27;23.20;16.44;3.38;-20.15;-3.27
1.63;20.80;2.72;-25.70;-8.82;-10.56
-4.03;1.52;-11.76;0.11;-0.00;-12.09
-11.22;-12.96;-13.39;10.56;-23.41;-33.11
-17.75;-12.20;-28.75;-0.65;4.79;-39.53
-13.72;-27.55;-44.00;-0.65;4.03;-27.44
-4.79;-14.59;-48.90;0.11;4.79;-24.18
-16.88;-32.34;-42.36;11.43;6.43;-13.72
-8.06;-29.08;-41.60;-2.29;5.66;-0.87
3.27;-31.58;-35.17;-7.95;8.06;19.28
10.45;-22.65;-27.12;-0.65;3.16;26.57
3.27;-16.99;-21.45;-2.29;4.79;14.48
28.97;-1.74;16.44;6.53;4.79;6.43
0.87;5.55;17.21;3.38;0.76;-12.96
-0.76;42.58;30.06;3.38;4.79;-11.33
-2.40;30.49;44.65;0.11;-2.40;10.45
4.03;31.25;43.02;4.90;-2.40;32.23
14.48;32.13;46.17;8.93;5.66;34.63
20.15;30.49;38.11;0.11;-8.06;30.60
28.97;28.10;31.69;-1.52;-8.06;9.58
20.15;22.43;32.56;0.87;-8.82;1.52
8.82;6.32;4.36;-0.65;-5.66;-0.87
12.09;0.65;-9.37;-3.16;-0.87;-9.69
14.48;-6.53;-21.45;-2.29;-4.90;-16.12
4.03;-19.49;-27.12;-33.76;2.40;-15.35
16.12;-24.28;-39.97;-6.32;4.03;-16.99
-27.33;-34.74;-52.05;-2.29;19.28;-15.35
-45.96;-32.34;-42.36;-2.29;4.03;-18.51
-30.60;-30.71;-40.84;38.77;5.66;-20.15
-24.94;-3.38;-31.91;-3.16;5.66;-5.66
-22.54;-27.55;-18.19;-2.29;5.66;-4.03
-4.03;-11.43;-6.97;-3.16;0.76;-8.93
-0.76;-6.53;11.54;-1.52;16.88;0.76
-8.82;6.32;17.21;0.11;4.03;-6.53
-20.15;17.64;31.69;-7.19;-24.94;7.19
27.44;27.22;61.53;3.38;-8.82;20.15
13.72;32.13;50.20;2.50;-8.06;31.36
4.03;31.25;42.14;0.11;-16.12;27.33
18.51;31.25;37.35;-0.65;-8.82;24.18
16.88;24.07;28.53;-3.16;-4.03;-10.56
-22.54;26.46;17.21;6.53;0.76;-19.38
16.12;11.11;9.15;1.74;2.40;-0.87
50.75;3.05;-15.03;0.11;-0.87;-13.72
49.11;0.65;-15.03;2.50;3.16;-5.66
28.97;-14.59;-18.19;-4.68;-20.15;-11.33
-30.60;-28.31;-48.02;-28.86;4.79;9.58
-87.01;-33.11;-49.66;-4.68;7.19;15.25
-50.75;-36.37;-38.33;0.11;9.69;1.52
-56.41;-40.40;-39.20;-0.65;4.79;-15.35
-45.96;-33.98;-29.51;-2.29;3.16;-24.18
-7.19;-20.26;-21.45;-15.25;4.79;-16.99
4.03;-14.59;-1.31;0.11;10.45;-64.47
15.35;-3.38;-5.34;2.50;4.79;-54.78
18.51;5.55;18.84;4.90;4.79;-16.99
16.88;15.14;47.04;0.11;4.79;26.57
20.15;26.46;43.02;-1.52;-0.00;52.38
15.35;32.89;38.11;0.87;-0.87;65.23
20.91;32.13;49.44;6.53;-0.00;70.89
7.30;31.25;33.32;2.50;-7.30;78.95
11.33;29.73;31.69;3.38;-2.40;52.38
4.03;-8.17;21.24;-15.25;-12.09;7.19
-3.16;11.11;5.99;-0.65;-3.27;-16.12
3.27;4.68;-11.00;-4.68;-5.66;-28.21
-7.19;-4.14;-15.03;-0.65;-3.27;-23.41
5.66;-16.23;-21.45;-2.29;0.76;-26.57
8.06;-20.26;-52.05;-3.16;3.16;-37.90
14.48;-34.74;-41.60;-4.68;-0.00;-68.50
4.03;-31.58;-38.33;-2.29;-0.00;-58.81
4.79;-29.95;-35.94;-2.29;3.16;-41.93
4.03;-28.31;-28.75;-7.19;8.82;-21.78
3.27;-22.65;-27.12;-1.52;12.09;-1.63
1.63;-14.59;-2.94;-3.16;5.66;13.61
3.27;-2.50;8.39;-2.29;4.79;43.45
3.27;5.55;20.47;1.74;4.03;83.74
13.72;16.77;30.06;4.90;0.76;65.23
18.51;31.25;39.75;8.17;0.76;29.73
40.29;40.18;46.17;6.53;-5.66;-8.93
30.60;36.92;41.38;3.38;-2.40;-25.05
24.18;40.18;41.38;9.80;-9.69;-19.38
11.33;31.25;38.11;-1.52;-6.43;-1.63
0.87;16.01;12.41;0.11;5.66;1.52
-7.19;10.35;5.99;0.11;-20.91;4.03
-37.03;-4.90;-10.13;3.38;-4.90;-7.30
-4.03;-2.50;-21.45;6.53;-0.87;-12.96
-5.66;-14.59;-37.57;-2.29;-2.40;-29.08
-10.45;-29.95;-38.33;-7.19;4.79;-28.21
-11.22;-37.13;-47.26;-2.29;-4.03;-26.57
-11.22;-35.61;-42.36;-3.92;4.03;-23.41
-4.03;-30.71;-35.17;-4.68;6.43;-20.15
-7.19;-25.92;-28.75;-7.19;4.79;-14.48
-4.79;-8.17;-19.06;3.38;7.19;-7.30
1.63;-6.53;-1.31;-2.29;6.43;0.76
1.63;-0.11;14.81;-0.65;4.79;10.45
4.79;11.11;16.44;1.74;4.79;14.48
13.72;18.40;26.14;8.93;4.79;24.94
3.27;31.25;50.20;3.38;-12.09;31.36
2.40;32.13;47.81;-15.25;-0.00;33.00
2.40;32.13;32.56;0.11;-5.66;28.97
-4.03;31.25;34.96;4.90;-7.30;23.30
1.63;31.25;29.29;4.14;-8.82;13.61
4.03;17.64;20.47;2.50;-6.43;3.16
0.87;9.58;2.72;3.38;-7.30;-0.00
-2.40;-4.90;-8.60;1.74;-4.90;-10.56
-4.79;-12.20;-19.06;-0.65;-3.27;-25.05
-37.03;-46.06;-35.17;-2.29;2.40;-37.90
-10.45;-29.95;-41.60;0.11;4.79;-34.63
-36.26;-4.90;-48.90;-3.92;6.43;-33.11
1.63;-31.58;-39.97;-3.16;5.66;-35.50
-13.72;-29.95;-52.93;-3.92;9.69;-22.54
28.97;-37.13;-27.88;-4.68;16.12;0.76
2.40;-20.26;-15.79;-0.65;7.19;28.21
-22.54;-8.17;-1.31;-3.16;12.85;29.73
-49.99;-4.90;10.78;0.11;-0.00;1.52
4.79;7.95;21.24;6.53;-16.12;16.88
7.30;22.43;37.35;0.87;-9.69;38.66
4.79;28.86;43.02;5.77;-5.66;39.42
10.45;31.25;50.20;1.74;2.40;31.36
-5.66;33.76;38.99;10.56;4.79;16.12
16.88;32.89;39.75;8.93;-2.40;1.52
13.72;31.25;39.75;10.56;-5.66;1.52
12.09;18.40;21.24;1.74;-0.87;1.52
14.48;9.58;7.51;2.50;-8.82;-8.06
13.72;3.92;-10.13;-3.92;-7.30;-8.06
3.27;-9.80;-18.19;-4.68;-4.03;-2.50
-7.19;-21.89;-31.91;-1.52;4.03;-18.51
-18.51;-36.37;-44.00;-6.32;-4.90;-25.05
-12.09;-30.71;-44.00;6.53;4.03;-29.08
-6.43;-36.37;-41.60;-9.58;4.79;-24.18
-15.25;-26.68;-39.97;-7.19;7.19;-24.18
-8.82;-24.28;-25.48;-0.65;8.82;-16.12
-4.79;-20.26;-21.45;-7.19;7.19;-11.33
-2.40;5.55;-2.07;10.56;4.79;0.76
3.27;20.04;10.02;11.43;8.82;3.16
0.87;29.73;23.63;-4.68;4.79;10.45
5.66;17.64;33.32;8.17;1.63;20.15
28.97;30.49;42.14;1.74;1.63;26.57
4.79;31.25;44.65;0.87;-2.40;28.21
8.82;27.22;39.75;6.53;-8.82;26.57
8.06;31.25;39.75;3.38;-4.90;21.67
8.06;32.13;38.11;40.40;-5.66;17.64
3.27;23.20;24.50;-3.16;-4.90;9.58
3.27;8.71;3.48;2.50;-3.27;-0.00
3.27;0.65;-8.60;-30.49;-7.30;-6.53
1.63;-4.14;-11.76;0.87;-4.03;-15.35
-4.79;-18.62;-32.78;-14.37;-0.00;-24.18
-8.82;-34.74;-42.36;-0.65;0.76;-18.51
28.21;-35.61;-50.42;-1.52;4.03;-23.41
26.57;-37.13;-40.84;-3.92;3.16;-24.18
8.82;-33.98;-41.60;-6.32;4.79;-24.18
-33.87;-25.92;-37.57;-2.29;6.43;-10.56
-74.16;-21.02;-23.09;0.11;8.06;5.55
-56.41;-19.49;-12.63;-1.52;6.43;26.57
-46.72;-0.98;7.51;0.11;4.03;29.73
-22.54;5.55;17.21;15.46;4.79;8.82
41.06;18.40;26.90;3.38;4.79;9.58
27.44;26.46;38.99;4.90;-3.27;-29.08
28.97;31.25;38.99;6.53;-6.43;-49.22
33.87;33.76;38.99;6.53;-6.43;-33.11
28.97;36.15;42.14;10.56;-0.87;-5.66
28.97;31.25;26.14;9.80;-0.87;12.09
18.51;22.43;15.57;-3.16;-11.33;28.21
3.27;8.71;-1.31;-3.92;-20.15;53.91
0.87;-4.90;-14.16;-3.16;-5.66;76.45
-12.09;-42.80;-22.22;-2.29;3.16;43.45
0.00;-21.02;-36.81;-23.20;-0.00;4.03
-12.09;-19.49;-42.36;-6.32;3.16;-24.18
-6.43;-31.58;-47.26;-0.65;3.16;-41.16
-6.43;-32.34;-44.87;-3.16;2.40;-41.16
-6.43;-61.31;-44.00;-9.58;2.40;-45.96
-5.66;-28.31;-31.15;-6.32;6.43;-26.57
-5.66;-19.49;-18.19;-3.92;8.06;-19.38
11.33;-3.38;-1.31;-3.92;6.43;-7.30
3.27;-0.11;10.78;-0.65;3.16;3.16
3.27;6.32;20.47;2.50;3.16;12.09
14.48;19.17;30.06;4.90;0.76;19.28
4.79;23.20;45.41;6.53;-5.66;27.33
-4.79;53.03;45.41;-28.86;-3.27;27.33
5.66;36.92;38.11;5.77;-2.40;24.18
-9.69;31.25;38.99;8.17;-4.90;24.94
3.27;17.64;26.14;-3.16;-6.43;12.09
3.27;17.64;18.84;3.38;-14.48;5.55
3.27;5.55;10.78;2.50;-5.66;0.76
-7.19;3.92;-3.70;-22.43;-2.40;-12.09
-10.45;-10.56;-13.39;-20.80;-3.27;-11.33
-22.54;-13.83;-27.12;-3.16;-3.27;-26.57
-8.06;-32.34;-39.97;-1.52;3.16;-25.81
-12.85;-35.61;-52.05;-1.52;18.51;-24.18
-11.22;-34.74;-34.30;-3.92;4.79;-25.81
-16.88;-35.61;-35.94;-2.29;8.82;-26.57
-12.09;-29.08;-31.15;-3.16;-10.45;-18.51
-1.63;-16.23;-18.19;-16.01;6.43;-7.30
3.27;13.61;-1.31;0.11;8.06;1.52
-7.19;-3.38;7.51;-0.65;4.79;10.45
20.91;7.95;14.05;-32.13;4.03;13.61
-0.76;21.67;28.53;-0.65;3.16;31.36
30.60;5.55;44.65;3.38;-0.00;24.94
27.44;31.25;50.20;2.50;-4.03;18.51
-12.85;58.70;42.14;2.50;-4.90;19.28
-6.43;32.89;39.75;1.74;-8.82;31.36
-8.82;31.25;30.06;1.74;-15.35;28.21
-9.69;22.43;21.24;1.74;-4.03;20.91
-18.51;8.71;10.78;0.11;-5.66;12.09
-30.60;1.52;-10.13;4.90;-2.40;15.25
-15.25;-7.41;-18.19;2.50;-0.00;9.58
-28.21;-26.68;-34.30;-2.29;-5.66;-11.33
-15.25;-33.11;-39.97;-1.52;4.79;-31.47
-6.43;-67.84;-47.26;-12.74;-5.66;-52.38
16.12;-53.25;-41.60;-7.95;-3.27;-51.62
0.00;-31.58;-39.20;-35.28;0.76;-33.87
20.15;-25.92;-27.12;-2.29;8.82;-4.03
-8.06;-21.02;-13.39;-2.29;8.82;-15.35
0.00;-9.80;-2.94;-0.65;8.06;-16.12
-0.76;1.52;11.54;10.56;4.79;-0.87
5.66;7.95;13.18;2.50;4.03;3.16
3.27;16.77;29.29;-23.20;2.40;12.85
3.27;31.25;59.89;-1.52;-5.66;19.28
13.72;32.89;46.17;2.50;-0.00;26.57
27.44;35.28;43.02;5.77;-4.03;27.33
15.35;31.25;36.59;4.90;-6.43;26.57
15.35;30.49;35.72;2.50;-8.82;19.28
8.06;19.17;22.87;2.50;-6.43;12.85
3.27;9.58;6.75;0.11;-4.03;3.16
0.87;6.32;-8.60;-2.29;-8.06;-5.66
-2.40;-8.17;-17.42;0.11;-4.03;-12.09
-36.26;-17.86;-17.42;-0.65;0.76;-24.18
-7.19;-28.31;-42.36;-3.16;16.12;-29.84
-10.45;-29.08;-42.36;-3.92;4.79;-23.41
4.03;-33.11;-39.97;-2.29;6.43;-24.18
-24.94;-54.89;-35.94;-6.32;10.45;-25.05
-11.22;-35.61;-31.15;-2.29;5.66;-12.09
-2.40;-22.65;-22.22;-0.65;5.66;-7.30
-0.76;-11.43;-6.97;-1.52;5.66;4.79
-0.76;-3.38;11.54;8.17;4.03;8.82
8.82;5.55;24.50;0.11;4.79;12.09
4.03;20.04;22.87;-3.16;3.16;25.70
6.43;31.25;36.59;5.77;3.16;27.33
2.40;32.13;51.07;6.53;0.76;24.94
8.06;30.49;23.63;10.56;-4.03;7.19
3.27;31.25;35.72;3.38;-7.30;-7.30
-0.76;31.25;27.66;6.53;-10.45;-12.09
24.94;18.40;11.54;1.74;-10.45;-6.53
46.72;5.55;-3.70;0.11;-6.43;-0.87
36.26;1.52;-14.16;0.11;-5.66;1.52
2.40;-9.80;-24.72;-3.16;0.76;-3.27
-36.26;-22.65;-31.15;-7.95;0.76;15.25
-59.57;-21.89;-42.36;-2.29;7.19;34.63
-49.11;-38.77;-44.00;-3.16;6.43;0.76
-63.60;-16.23;-44.00;0.87;12.85;-14.48
16.12;-33.98;-39.20;-2.29;9.69;-25.05
54.78;-30.71;-27.12;-2.29;4.79;-23.41
15.35;-17.86;-23.09;-2.29;5.66;-24.18
-22.54;-8.93;-8.60;0.11;-3.27;-33.11
-4.03;-3.38;7.51;-1.52;-3.27;-25.05
5.66;4.68;22.11;1.74;-16.12;-0.00
-4.03;20.04;24.50;-1.52;4.03;34.63
3.27;32.89;37.35;1.74;2.40;41.06
3.27;35.28;49.44;4.90;-2.40;41.06
4.03;32.89;41.38;6.53;-3.27;33.00
13.72;32.13;38.99;4.14;-4.90;28.21
7.30;28.86;28.53;5.77;-9.69;6.43
8.06;19.17;28.53;-1.52;-8.82;-13.72
5.66;10.35;-1.31;-3.16;-4.90;-25.81
3.27;0.65;-11.00;-0.65;-4.03;-24.18
4.79;0.65;-22.22;-3.92;0.76;-8.93
0.87;-12.96;-35.94;-4.68;-3.27;1.52
4.79;-29.95;-41.60;-4.68;8.82;5.55
-4.79;-38.01;-44.00;-3.92;4.79;-20.15
-8.82;-35.61;-38.33;-12.74;4.03;-60.44
-5.66;-33.11;-41.60;-3.16;1.63;-49.99
-4.03;-32.34;-27.12;-2.29;4.79;-24.18
-4.79;-24.28;-18.19;-1.52;7.19;-12.09
-2.40;-10.56;-11.00;0.11;16.88;7.19
2.40;3.05;9.15;-0.65;4.79;24.18
3.27;9.58;17.21;-0.65;4.03;30.60
3.27;19.17;29.29;1.74;5.66;45.85
3.27;31.25;47.04;-28.86;2.40;49.11
13.72;32.89;50.20;0.11;-4.03;32.23
12.09;23.20;39.75;23.52;-7.30;21.67
7.30;31.25;50.20;3.38;-7.30;12.85
3.27;30.49;36.59;2.50;-5.66;7.19
7.30;14.37;15.57;1.74;-7.30;1.52
-2.40;42.58;1.09;-9.58;-7.30;0.76
-4.79;-0.11;-11.00;0.11;-8.82;-12.96
0.87;-9.80;-18.19;-2.29;-6.43;-20.15
-8.06;-17.86;-52.93;-6.32;6.43;-34.63
-13.72;-29.08;-44.00;-9.58;2.40;-25.05
-10.45;-30.71;-58.48;-3.92;-20.15;-31.47
-9.69;-25.05;-39.20;-2.29;17.75;-25.81
2.40;-30.71;-34.30;-2.29;4.79;-18.51
3.27;-29.08;-35.94;2.50;5.66;-12.09
-10.45;-24.28;-21.45;-2.29;7.19;1.52
-22.54;-11.43;-1.31;0.11;4.79;7.19
-23.30;5.55;10.78;-3.16;10.45;19.28
-45.96;4.68;12.41;4.90;9.69;12.09
-8.82;18.40;24.50;1.74;5.66;12.09
42.69;28.86;47.81;4.90;15.25;3.16
16.12;31.25;36.59;3.38;-9.69;-15.35
26.57;35.28;38.11;-17.64;-19.38;-33.87
28.21;26.46;39.75;34.74;-21.78;-12.09
24.18;29.73;28.53;5.77;-20.91;27.33
50.75;24.07;19.60;0.87;-15.35;26.57
-0.76;6.32;6.75;0.11;-10.45;16.12
-9.69;-7.41;-8.60;0.11;-2.40;23.30
-8.06;-8.17;-19.82;0.11;4.79;19.28
-28.21;-20.26;-52.93;-3.92;4.79;21.67
-15.25;-66.97;-44.87;-3.16;8.82;5.55
-24.94;-38.77;-39.97;-6.32;24.94;-8.93
27.44;-33.98;-44.00;-6.32;15.25;-25.81
-7.19;-33.98;-39.97;-4.68;15.25;-36.26
-10.45;-54.89;-29.51;-35.28;15.25;-28.21
3.27;-20.26;-19.06;-2.29;8.06;-20.15
3.27;-34.74;-10.13;-2.29;8.82;-0.00
3.27;-4.90;11.54;6.53;4.79;5.55
4.79;4.68;20.47;-1.52;4.03;12.09
21.78;17.64;31.69;8.93;4.79;26.57
29.84;31.25;42.14;7.41;4.79;27.33
31.47;41.82;47.81;8.17;-2.40;12.85
-14.48;32.13;43.02;-2.29;-6.43;13.61
3.27;18.40;38.99;-3.16;-5.66;17.64
4.03;28.86;26.90;3.38;-8.82;6.43
1.63;21.67;18.08;-1.52;-8.82;4.79
2.40;3.92;1.96;-0.65;-5.66;-0.87
41.06;-11.43;-6.97;-0.65;-10.45;-8.06
36.26;-8.17;-18.19;0.11;-8.82;-11.33
24.94;-17.86;-34.30;-0.65;23.30;-22.54
25.81;-31.58;-47.26;-4.68;0.76;-24.18
-29.84;-28.31;-52.05;-6.32;4.03;-19.38
-45.08;1.52;-39.97;0.11;4.03;-22.54
-23.30;-35.61;-41.60;11.43;7.19;-25.05
-89.41;-35.61;-27.88;-3.16;6.43;-29.08
-79.71;-54.89;-19.06;0.11;9.69;-50.75
-27.33;-5.77;-1.31;5.77;12.09;-39.53
-10.45;3.05;14.05;5.77;4.79;-21.78
-12.85;3.05;15.57;4.90;4.79;12.09
-18.51;12.74;28.53;-1.52;2.40;35.39
2.40;29.73;37.35;5.77;-8.82;69.26
20.15;31.25;46.17;1.74;-2.40;81.35
33.87;36.92;11.54;8.93;-8.06;91.04
24.18;28.86;36.59;3.38;-4.03;53.14
12.09;31.25;26.14;0.11;-7.30;16.88
-16.88;16.01;16.44;3.38;-6.43;-4.03
8.82;29.73;-1.31;1.74;-12.09;-20.15
8.82;22.43;-6.97;-0.65;-5.66;-25.05
3.27;-5.77;-18.19;1.74;-4.03;-33.11
-0.76;-22.65;-27.88;-6.32;-2.40;-49.99
-12.85;-28.31;-44.00;-1.52;-0.00;-39.53
-12.09;-30.71;-44.00;-3.92;4.79;-24.18
-14.48;-28.31;-39.20;-1.52;6.43;-25.81
-8.82;-38.01;-38.33;-2.29;10.45;-20.15
-7.19;-25.92;-27.12;-3.16;6.43;-25.05
-2.40;-20.26;-16.66;-1.52;8.82;-33.11
1.63;-10.56;-2.94;37.13;7.19;-15.35
4.03;-1.74;11.54;1.74;12.85;1.52
16.88;7.95;22.11;-1.52;2.40;16.88
8.82;22.43;20.47;4.90;-0.87;34.63
33.00;29.73;38.99;-4.68;0.76;45.85
11.33;31.25;43.02;1.74;-4.03;57.17
16.12;34.52;37.35;1.74;-3.27;76.45
11.33;38.55;38.99;17.86;-9.69;45.08
15.35;30.49;38.11;4.90;-6.43;16.88
15.35;-10.56;20.47;6.53;-5.66;1.52
-11.22;6.32;1.09;-3.16;0.76;-9.69
-39.42;-2.50;-19.06;2.50;0.76;-24.18
-39.42;-8.93;-13.39;0.11;2.40;-41.93
-62.84;-21.02;-28.75;0.11;-3.27;-58.81
-40.29;-33.98;-48.90;-2.29;4.79;-49.99
14.48;-31.58;-47.26;11.43;7.19;-45.19
28.97;-33.11;-40.84;-31.25;8.06;-39.53
16.12;-29.08;-41.60;-0.65;6.43;-25.81
20.15;-29.08;-27.12;1.74;10.45;-10.56
13.72;-25.92;-16.66;-0.65;4.79;10.45
3.27;-16.23;-3.70;1.74;1.63;8.82
2.40;3.92;10.02;0.87;-4.03;7.19
5.66;7.95;22.11;0.11;-6.43;20.15
4.03;20.04;29.29;2.50;-11.33;27.33
0.87;30.49;47.81;8.17;-8.82;21.67
0.00;32.89;44.65;4.90;-2.40;13.61
3.27;36.92;39.75;-4.68;-6.43;-39.53
4.03;32.89;45.41;8.93;-8.82;-41.16
10.45;32.13;26.90;0.11;-8.82;-21.78
12.85;23.20;-2.94;2.50;-9.69;18.51
18.51;16.77;1.96;-1.52;-0.00;39.42
28.97;-4.14;-12.63;16.23;2.40;50.75
3.27;-5.77;-15.03;-0.65;5.66;54.78
-31.36;-19.49;-28.75;-3.16;2.40;57.17
-42.69;-33.98;-40.84;-1.52;0.76;45.08
-16.88;-40.40;-44.87;-3.92;4.79;-9.69
-17.75;-37.13;-38.33;-2.29;8.82;-34.63
24.18;-35.61;-38.33;-4.68;3.16;-42.69
89.41;-33.98;-27.88;-1.52;-2.40;-28.21
41.06;-23.52;-21.45;-3.92;-6.43;-32.23
-22.54;-14.59;-6.10;-3.92;-10.45;-24.18
-81.35;0.65;14.05;-0.65;4.79;-5.66
-81.35;10.35;0.33;4.90;5.66;-0.00
-40.29;5.55;33.32;-2.29;4.79;9.58
-34.63;27.22;46.17;-1.52;4.79;16.88
16.12;31.25;49.44;-23.20;-0.00;28.21
12.09;32.89;47.81;0.87;-4.03;25.70
16.88;31.25;35.72;4.90;-5.66;10.45
17.75;30.49;25.26;-0.65;-8.82;-2.50
26.57;26.46;16.44;0.11;-6.43;-0.00
20.91;9.58;1.09;-1.52;-2.40;-7.30
12.09;1.52;-12.63;-0.65;-5.66;-11.33
4.03;-4.90;-21.45;0.11;-0.87;-7.30
3.27;-18.62;-29.51;-1.52;2.40;-11.33
-0.76;-29.08;-44.00;0.11;2.40;-20.15
-5.66;-29.95;-48.02;-9.58;4.79;-16.99
-7.19;-27.55;-39.20;-15.25;4.79;-22.54
-4.03;-27.55;-39.20;-5.55;4.03;-34.63
-10.45;-32.34;-29.51;-2.29;9.69;-21.78
1.63;-19.49;-15.79;-2.29;7.19;-11.33
0.87;-8.17;-0.54;1.74;20.91;4.03
-4.79;-21.02;12.41;14.59;4.79;15.25
-29.84;11.11;22.11;2.50;1.63;10.45
2.40;14.37;49.44;-1.52;4.03;27.33
3.27;24.07;41.38;4.14;2.40;38.66
3.27;33.76;48.68;0.11;5.66;16.88
-0.76;31.25;45.41;9.80;1.63;17.64
3.27;1.52;43.02;-7.95;-4.03;16.12
16.88;27.22;24.50;3.38;-13.72;13.61
8.82;20.80;23.63;5.77;-4.03;5.55
13.72;11.11;2.72;-4.68;-0.00;-0.87
0.00;-4.90;-13.39;1.74;-3.27;-5.66
-8.06;-33.98;-16.66;-2.29;2.40;-16.12
-27.33;-8.93;-37.57;0.87;-0.00;-25.05
-16.88;-25.92;-43.23;10.56;-16.12;-36.26
-9.69;-35.61;-48.02;-2.29;1.63;-33.11
1.63;-42.04;-38.33;9.80;16.88;-25.81
-0.76;-30.71;-30.27;-12.74;2.40;-31.47
24.94;-24.28;-28.75;-3.16;16.12;-16.99
21.78;-17.86;-13.39;-2.29;5.66;-2.50
24.18;-7.41;-1.31;3.38;6.43;-13.72
17.75;3.92;8.39;0.11;1.63;-20.15
17.75;-19.49;17.21;2.50;4.79;-2.50
-28.21;14.37;34.96;10.56;-0.00;28.97
0.87;29.73;41.38;3.38;4.03;63.60
0.87;36.15;47.04;3.38;0.76;68.50
-0.76;31.25;44.65;8.93;-3.27;49.11
0.00;27.22;34.96;2.50;-5.66;27.33
-11.22;26.46;29.29;-0.65;-15.35;16.12
-8.82;16.01;20.47;-3.92;-8.82;-3.27
-8.06;10.35;1.09;1.74;-12.09;-19.38
-12.09;1.52;-14.16;1.74;-7.30;-13.72
-16.88;14.37;-15.79;-1.52;0.76;-7.30
-1.63;-20.26;-31.15;-2.29;0.76;-12.09
-8.82;-34.74;-40.84;21.02;4.03;-8.06
-24.94;-67.84;-44.87;-0.65;12.09;1.52
-4.79;-62.18;-35.94;-7.95;8.82;-7.30
-12.09;-34.74;-44.00;-33.76;4.79;-31.47
-18.51;-28.31;-32.78;-3.92;9.69;-20.15
-1.63;-16.23;-23.09;-7.19;4.03;-4.03
24.94;-7.41;-6.10;-3.92;-12.09;7.19
37.03;0.65;8.39;1.74;8.06;8.82
35.50;7.95;24.50;-4.68;-4.03;-11.33
0.87;22.43;33.32;0.11;-4.90;1.52
0.87;31.25;38.99;-1.52;-0.87;15.25
13.72;37.79;52.71;3.38;6.43;3.16
-47.48;24.07;38.99;-12.74;12.09;36.26
-35.39;25.70;41.38;2.50;-10.45;27.33
-15.25;26.46;26.14;3.38;-8.82;12.85
-4.03;16.77;14.05;0.11;-6.43;2.40
-1.63;13.61;0.33;4.14;-0.87;-3.27
16.12;5.55;-10.13;-2.29;-0.87;-12.09
12.85;-4.14;-39.97;-3.16;-8.06;-48.35
86.25;-20.26;-31.15;-12.74;-8.82;-67.74
50.75;-51.73;-40.84;-1.52;-2.40;-54.01
16.12;-36.37;-40.84;-2.29;-2.40;-58.81
-10.45;-31.58;-38.33;0.11;4.79;-33.11
-73.29;-25.92;-37.57;-0.65;6.43;-16.12
-56.41;-24.28;-30.27;-0.65;8.82;4.03
-35.39;-17.86;-19.06;-2.29;6.43;13.61
-34.63;-8.93;-2.94;-2.29;4.79;23.30
4.03;23.20;15.57;-2.29;8.06;27.33
12.09;4.68;18.84;1.74;9.69;36.26
8.82;20.04;29.29;0.11;3.16;26.57
12.09;24.07;39.75;1.74;-0.87;40.29
18.51;29.73;41.38;21.89;-5.66;35.39
8.82;29.73;38.11;1.74;-7.30;32.23
5.66;35.28;26.14;7.41;-7.30;28.97
5.66;27.22;24.50;8.93;-7.30;15.25
8.82;18.40;19.60;-2.29;-5.66;2.40
8.82;-15.46;6.75;0.11;-4.90;-8.06
29.84;-1.74;-10.13;2.50;-4.03;-20.15
-0.76;-6.53;-15.79;2.50;-2.40;-16.12
-4.03;-15.46;-31.91;-1.52;0.76;-24.18
-16.88;-22.65;-37.57;-4.68;10.45;-33.11
-23.30;-37.13;-40.84;-2.29;7.19;-24.18
-11.22;-33.11;-39.20;-3.92;12.85;-79.82
-8.06;-32.34;-31.15;-11.22;3.16;-75.79
-22.54;-22.65;-24.72;-3.16;13.72;-36.26
-16.88;-22.65;-21.45;-4.68;6.43;-7.30
-23.30;-10.56;-0.54;-28.10;4.79;25.70
-29.84;27.22;10.02;-1.52;4.79;51.51
-8.82;3.92;11.54;2.50;4.79;62.84
37.90;15.14;35.72;0.87;-5.66;74.92
15.35;20.04;28.53;4.90;-8.06;65.23
28.97;31.25;50.20;6.53;-2.40;43.45
52.38;32.13;49.44;4.14;-3.27;18.51
63.71;32.13;48.68;1.74;-12.09;1.52
25.81;31.25;38.99;4.14;-6.43;-8.93
16.12;19.17;19.60;-6.32;-15.35;-20.15
3.27;6.32;1.96;0.11;-5.66;-16.99
-5.66;-3.38;-8.60;0.87;-2.40;-19.38
-6.43;-9.80;-15.79;-3.16;4.79;-24.18
-8.06;-20.26;-17.42;-4.68;-7.30;-45.96
-12.85;-36.37;-49.66;-7.95;3.16;-26.57
-11.22;-54.12;-48.90;-4.68;0.76;-28.21
-10.45;-25.92;-42.36;-6.32;-18.51;-24.18
-5.66;-39.64;-38.33;-3.92;5.66;-24.18
-12.09;-22.65;-34.30;-3.92;12.85;-24.18
-8.82;-19.49;-16.66;-2.29;-20.15;-18.51
-36.26;-36.37;-3.70;-15.25;6.43;-7.30
4.79;-3.38;14.05;-2.29;4.79;4.03
3.27;5.55;24.50;4.90;-8.82;19.28
5.66;20.80;37.35;8.93;3.16;32.23
16.88;36.92;47.04;6.53;4.79;53.91
28.97;10.35;46.17;8.17;4.03;53.14
15.35;35.28;38.11;7.41;4.03;39.42
12.09;31.25;44.65;0.87;-7.30;24.94
-8.82;27.22;26.90;0.11;-29.84;14.48
-16.88;20.04;18.08;0.11;-8.82;15.25
-1.63;7.08;2.72;6.53;-7.30;-1.63
4.03;-1.74;-8.60;1.74;-9.69;-16.12
3.27;-12.20;-22.22;0.11;-8.82;-29.08
-8.06;-17.86;-29.51;-2.29;-2.40;-24.18
-14.48;-25.05;-41.60;-0.65;4.79;-18.51
-12.09;-28.31;-49.66;-11.22;7.19;-23.41
-9.69;-33.11;-39.20;-1.52;4.79;-31.47
-12.85;-31.58;-40.84;-3.16;4.79;-35.50
-9.69;-31.58;-27.88;-3.16;3.16;-28.21
-4.03;-20.26;-15.03;-0.65;-2.40;-46.72
1.63;-0.11;-9.37;-6.32;-3.27;-51.62
1.63;0.65;10.02;-1.52;4.79;-45.19
3.27;11.11;11.54;8.93;30.60;-12.09
-17.75;10.35;30.06;25.05;2.40;20.91
7.30;29.73;24.50;2.50;-1.63;49.11
12.09;25.70;37.35;2.50;-0.00;70.02
10.45;31.25;28.53;8.93;-8.06;69.26
7.30;31.25;33.32;1.74;-5.66;77.32
12.09;25.70;24.50;3.38;-12.09;47.48
20.15;24.07;17.21;1.74;-5.66;24.94
16.12;11.11;7.51;2.50;-10.45;12.85
24.94;1.52;6.75;-2.29;-16.12;4.03
10.45;-8.17;-14.16;0.11;2.40;1.52
20.15;11.11;-36.81;-2.29;4.79;-5.66
4.03;-25.05;-47.26;-3.92;7.19;-24.18
2.40;-31.58;-47.26;-2.29;-15.35;-32.23
-29.84;-29.08;-41.60;16.23;5.66;-49.99
-78.19;-28.31;-40.84;-2.29;16.12;-47.59
-48.35;-31.58;-27.12;-2.29;17.75;-25.81
-45.96;-20.26;11.54;0.11;4.79;-12.96
-34.63;-16.99;-2.94;-2.29;2.40;-20.15
3.27;0.65;9.15;-3.16;-0.00;-24.18
13.72;7.95;15.57;2.50;8.06;-2.50
16.12;20.80;28.53;1.74;-0.00;17.64
24.94;31.25;35.72;9.80;-0.00;24.94
7.30;46.61;42.14;6.53;-5.66;29.73
8.06;31.25;37.35;0.11;-17.75;29.73
8.06;31.25;36.59;5.77;-12.85;41.06
7.30;17.64;26.90;4.90;-8.06;27.33
4.03;20.04;14.05;-2.29;-12.85;-0.87
3.27;5.55;0.33;0.11;-12.85;-10.56
3.27;5.55;-10.13;0.11;-4.03;-2.50
11.33;-3.38;-16.66;4.90;2.40;-7.30
14.48;-48.46;-27.12;-1.52;4.03;-20.15
-1.63;-28.31;-39.97;0.11;3.16;-26.57
8.82;-32.34;-39.97;-4.68;4.79;-41.93
12.85;-41.16;-35.94;-3.92;4.79;-41.93
3.27;-37.13;-35.17;4.90;12.85;-29.08
-5.66;-29.95;-27.88;-3.16;-3.27;-33.87
-10.45;-20.26;-18.19;-3.92;-5.66;-10.56
-15.25;-12.20;-0.54;-2.29;-0.00;20.91
-17.75;-5.77;-13.39;-2.29;4.03;16.12
-11.22;10.35;22.87;3.38;5.66;14.48
-35.39;9.58;41.38;11.43;4.03;21.67
7.30;30.49;44.65;4.90;4.03;13.61
39.53;32.89;48.68;6.53;3.16;16.12
29.84;44.21;44.65;7.41;-20.91;13.61
13.72;31.25;35.72;3.38;-3.27;16.88
24.94;31.25;42.14;6.53;2.40;15.25
4.03;19.17;18.84;2.50;-2.40;1.52
-20.15;12.74;17.21;2.50;-5.66;4.03
-1.63;-4.14;-23.85;2.50;4.03;25.70
12.85;-8.17;-17.42;-0.65;-0.00;3.16
-7.19;-19.49;-33.54;-2.29;-3.27;-18.51
-18.51;-29.08;-47.26;-3.16;0.76;-29.08
16.88;-30.71;-42.36;-5.55;7.19;-28.21
-0.76;-26.68;-44.87;3.38;4.79;-29.08
-15.25;-30.71;-38.33;-2.29;8.06;-37.13
-22.54;-30.71;-29.51;-3.92;15.25;-24.18
-8.82;-20.26;-18.19;-0.65;12.09;-0.87
-9.69;-10.56;-1.31;-7.95;13.72;6.43
2.40;3.05;7.51;19.49;8.82;4.03
1.63;4.68;10.78;0.87;2.40;11.22
3.27;19.17;25.26;3.38;-0.00;16.88
7.30;31.25;55.10;5.77;-5.66;18.51
7.30;44.98;39.75;38.01;-2.40;5.55
5.66;32.89;37.35;-23.20;-15.35;15.25
7.30;32.13;32.56;0.11;-12.09;26.57
12.09;24.83;22.87;-2.29;-16.88;25.70
4.79;16.77;12.41;5.77;-12.09;26.57
8.82;16.77;-0.54;29.08;-10.45;17.64
1.63;-0.11;-12.63;-4.68;-4.03;5.55
3.27;-12.96;-19.06;-3.92;-9.69;-8.06
-20.15;-20.26;-45.63;-7.19;6.43;-24.18
-12.09;-31.58;-48.90;-27.22;6.43;-25.05
-4.03;-32.34;-44.00;-0.65;4.79;-24.18
-4.03;-36.37;-41.60;-2.29;8.82;-25.81
11.33;-32.34;-45.63;0.11;10.45;-24.18
4.03;-28.31;-27.12;-2.29;4.79;-11.33
-8.06;-24.28;-23.09;-1.52;4.03;-33.87
-24.18;-9.80;-2.07;-0.65;4.03;-77.43
-24.94;4.68;7.51;-6.32;4.79;-74.92
-10.45;5.55;17.21;3.38;4.03;-38.66
-0.76;23.20;24.50;2.50;4.79;22.54
28.97;24.07;38.11;8.17;-3.27;74.05
16.12;36.15;43.02;-24.07;1.63;123.27
5.66;26.46;36.59;2.50;-0.87;140.92
-7.19;31.25;37.35;3.38;1.63;123.27
10.45;24.07;30.06;5.77;4.03;72.53
-8.82;24.07;16.44;12.20;-4.03;3.16
3.27;7.95;7.51;-3.16;-8.82;-34.63
11.33;-0.11;-8.60;-3.16;-8.82;-28.21
4.79;-6.53;-18.19;-2.29;-9.69;-34.63
3.27;-20.26;-32.78;-3.16;-3.27;-41.93
-0.76;-35.61;-41.60;-7.19;2.40;-47.59
2.40;-32.34;-44.00;-3.16;4.79;-48.35
-4.79;-34.74;-40.84;-3.92;4.79;-37.90
-40.29;-33.98;-44.87;-22.43;4.79;-37.90
-20.15;-29.95;-27.12;-2.29;-5.66;-25.05
-19.28;-20.26;-15.79;2.50;6.43;-16.12
-11.22;-9.80;-0.54;-4.68;8.82;-6.53
-3.16;-1.74;11.54;1.74;4.79;1.52
-5.66;9.58;51.07;0.87;4.79;18.51
5.66;-9.80;37.35;0.11;-0.00;24.94
30.60;30.49;43.02;2.50;-2.40;34.63
55.65;30.49;47.81;21.02;-0.00;22.54
21.78;34.52;45.41;10.56;-2.40;7.19
8.82;30.49;29.29;0.11;-5.66;-11.33
15.35;32.13;30.06;0.11;-11.33;-12.09
41.93;24.07;20.47;19.49;4.79;-21.02
39.53;6.32;3.48;12.96;-12.85;-27.44
17.75;-4.90;-9.37;-2.29;-7.30;-10.56
-18.51;-8.17;-18.19;-2.29;-2.40;-7.30
-74.16;-16.23;-39.20;-2.29;3.16;-2.50
-62.84;-33.98;-45.63;-3.92;4.03;1.52
-35.39;-28.31;-52.93;-2.29;-4.03;25.70
-56.41;-34.74;-49.66;-4.68;4.79;3.16
-16.88;-36.37;-46.39;-7.19;13.72;0.76
5.66;-23.52;-29.51;0.87;10.45;-3.27
-24.18;-42.04;-16.66;-1.52;8.82;-6.53
5.66;-9.80;-1.31;1.74;4.79;-3.27
3.27;1.52;1.96;-0.65;4.79;-29.08
5.66;11.11;15.57;3.38;-20.91;16.12
13.72;21.67;7.51;1.74;4.79;25.70
6.43;32.89;38.99;2.50;30.60;22.54
2.40;33.76;36.59;1.74;-0.00;18.51
12.85;28.10;37.35;4.90;-7.30;-10.56
6.43;31.25;38.11;5.77;-4.03;0.76
8.82;44.21;24.50;-3.92;-3.27;14.48
24.94;20.04;16.44;4.90;-12.09;13.61
-28.21;5.55;-1.31;0.87;-10.45;3.16
-0.76;-8.93;-17.42;-0.65;-6.43;-19.38
-22.54;-10.56;-25.48;-6.32;-6.43;-12.09
10.45;-20.26;-36.81;-4.68;4.03;-11.33
-2.40;-25.05;-40.84;10.56;3.16;-24.18
-16.88;-32.34;-44.00;-1.52;-3.27;-24.18
3.27;-28.31;-39.20;-7.95;2.40;-24.18
-12.85;-29.08;-37.57;-3.92;4.79;-26.57
-6.43;-22.65;-27.12;-10.35;9.69;-11.33
0.87;-21.02;-15.03;8.93;-8.82;1.52
2.40;-11.43;-1.31;-2.29;8.82;1.52
-4.03;3.92;10.02;3.38;-8.82;1.52
0.87;5.55;16.44;4.14;5.66;12.85
3.27;20.80;29.29;4.90;4.79;20.15
-7.19;26.46;43.02;4.90;4.79;-2.50
37.90;31.25;48.68;6.53;-5.66;24.18
4.79;31.25;43.02;4.14;4.79;27.33
3.27;31.25;39.75;8.17;-7.30;16.88
7.30;28.86;25.26;12.96;-5.66;11.22
1.63;20.80;12.41;3.38;-6.43;-0.00
2.40;9.58;2.72;-3.16;-5.66;0.76
-0.76;-11.43;-11.00;-1.52;-7.30;-11.33
-5.66;-6.53;-23.09;1.74;-21.78;-8.93
-11.22;-19.49;-21.45;-2.29;-3.27;-15.35
-0.76;-4.90;-47.26;-7.95;-5.66;-21.78
-9.69;-33.98;-42.36;-7.19;5.66;-12.96
-11.22;-33.98;-44.00;-7.19;4.03;-27.44
3.27;-30.71;-41.60;-0.65;6.43;-36.26
-2.40;-25.05;-30.27;11.43;4.79;-49.99
-8.06;-20.26;-16.66;-2.29;16.88;-37.13
-20.91;11.11;3.48;-2.29;6.43;-25.05
-5.66;3.92;14.05;-1.52;9.69;-6.53
12.09;13.61;17.21;5.77;6.43;27.33
24.18;18.40;26.90;-3.92;-0.87;53.91
37.90;27.22;43.02;-2.29;26.57;61.96
28.97;31.25;49.44;4.14;-4.03;38.66
23.41;30.49;44.65;12.20;-4.90;38.66
20.15;35.28;46.17;2.50;-3.27;42.69
-16.88;29.73;31.69;0.11;-8.82;32.23
-36.26;17.64;16.44;10.56;-5.66;24.94
-0.76;5.55;3.48;1.74;-4.90;2.40
-10.45;-3.38;-2.94;-3.92;4.79;-13.72
11.33;-8.17;-19.06;-9.58;2.40;-32.23
10.45;-20.26;-28.75;-12.74;2.40;-46.72
0.00;-27.55;-42.36;-4.68;3.16;-41.16
-15.25;-33.98;-45.63;22.65;3.16;-37.90
-22.54;-33.11;-40.84;-1.52;16.12;-32.23
-16.88;-48.46;-41.60;-7.95;-0.87;-25.05
-5.66;-21.02;-31.15;-1.52;-4.03;-0.87
-4.79;-22.65;-15.79;-3.16;7.19;2.40
4.03;-9.80;0.33;-2.29;8.06;12.85
37.90;-0.98;14.05;-4.68;3.16;15.25
43.56;-20.26;12.41;-7.95;-0.00;9.58
37.03;22.43;26.14;3.38;0.76;26.57
-4.79;27.22;43.02;3.38;-7.30;26.57
-74.16;36.92;55.10;2.50;-15.35;12.09
-74.92;35.28;43.78;5.77;-12.85;7.19
-54.01;31.25;38.11;-9.58;-10.45;-2.50
-24.18;22.43;32.56;-0.65;-5.66;-11.33
34.63;19.17;34.96;2.50;-7.30;-8.93
17.75;5.55;3.48;2.50;-9.69;-10.56
31.47;-11.43;-13.39;6.53;5.66;5.55
58.81;-8.17;-21.45;0.11;4.79;-0.00
21.78;-19.49;-35.94;0.87;8.06;-18.51
3.27;-24.28;-42.36;-6.32;4.79;-15.35
-20.15;-34.74;-50.42;-3.92;3.16;-22.54
-17.75;-33.11;-41.60;-4.68;0.76;-10.56
-16.88;-33.11;-54.45;-1.52;6.43;1.52
0.87;-28.31;-27.12;0.11;30.60;3.16
2.40;-21.02;-16.66;-1.52;2.40;4.03
12.09;-12.20;-2.07;1.74;3.16;-2.50
15.35;27.22;10.78;0.11;1.63;3.16
23.41;5.55;18.84;-2.29;2.40;6.43
16.12;16.77;34.09;1.74;0.76;16.12
14.48;28.86;43.02;4.90;4.03;12.09
7.30;33.76;50.20;4.90;-2.40;10.45
4.03;32.89;43.02;8.17;4.79;29.73
0.87;8.71;43.02;3.38;4.79;22.54
-5.66;29.73;45.41;4.90;-4.90;13.61
-7.19;-8.17;18.84;2.50;-8.82;1.52
-10.45;6.32;1.96;2.50;-7.30;-2.50
-8.82;-1.74;-6.10;-6.32;-9.69;-21.78
-5.66;-12.20;-19.82;0.11;-2.40;-25.05
-22.54;-17.86;-29.51;-4.68;-2.40;-34.63
-22.54;-25.92;-44.87;-3.92;-0.00;-54.01
2.40;-35.61;-48.02;-3.92;2.40;-49.99
-16.88;-37.13;-47.26;-28.86;4.03;-23.41
-7.19;-34.74;-39.20;-2.29;6.43;15.25
-5.66;-23.52;-27.88;-1.52;15.25;31.36
-2.40;-26.68;-14.16;-3.16;12.09;-8.06
14.48;-7.41;-1.31;-26.46;4.79;-36.26
13.72;-9.80;10.02;2.50;6.43;13.61
9.69;5.55;16.44;4.90;5.66;32.23
-4.03;13.61;26.14;-1.52;3.16;42.69
-22.54;27.22;42.14;6.53;13.72;66.86
-8.82;40.18;43.02;8.93;-7.30;78.08
-4.79;5.55;43.02;23.52;-9.69;80.48
5.66;32.13;35.72;0.11;-9.69;51.51
24.18;20.04;37.35;2.50;-7.30;1.52
33.00;21.67;11.54;4.14;-6.43;-24.18
11.33;6.32;1.09;-2.29;-33.00;-31.47
-33.00;0.65;-9.37;-3.16;-8.82;-25.81
-21.78;15.14;-16.66;0.11;-6.43;-25.81
-30.60;-23.52;-31.91;-3.16;4.79;-41.16
-18.51;-33.98;-39.97;-31.25;4.79;-41.16
-10.45;-34.74;-44.00;-7.95;4.79;-37.90
-16.88;-36.37;-36.81;-1.52;4.03;-41.93
-14.48;-33.11;-39.20;-4.68;9.69;-36.26
-9.69;-56.52;-27.88;-4.68;12.85;-10.56
-0.76;-45.19;-18.19;2.50;7.19;-2.50
-4.79;-5.77;-2.94;-2.29;4.79;6.43
-7.19;5.55;16.44;0.11;4.79;10.45
-0.76;7.95;21.24;0.11;2.40;7.19
24.18;16.01;26.90;4.90;4.79;37.79
12.85;32.89;50.20;0.11;-1.63;-12.09
16.88;32.13;30.06;1.74;-7.30;0.76
29.84;39.31;42.14;-0.65;-5.66;20.15
28.97;36.92;36.59;10.56;-8.82;27.33
15.35;31.25;24.50;3.38;-16.88;19.28
7.30;19.17;13.18;44.43;-15.35;31.36
0.00;5.55;1.09;4.90;-7.30;35.39
2.40;-4.90;-11.76;-0.65;0.76;33.00
0.00;-7.41;-24.72;-3.16;-2.40;1.52
-2.40;-20.26;-39.20;0.11;-0.00;-41.16
-10.45;-29.08;-27.88;0.11;4.03;-37.90
14.48;-38.77;-45.63;-6.32;4.03;-24.18
-21.78;-29.08;-42.36;-3.16;9.69;-25.05
-27.33;-61.31;-39.20;-0.65;8.82;-24.18
-22.54;-29.08;-12.63;-3.16;7.19;-23.41
-14.48;-22.65;-15.03;-17.64;9.69;-15.35
-12.09;-7.41;0.33;-1.52;5.66;-0.00
-7.19;0.65;4.36;2.50;5.66;16.88
-13.72;11.11;22.87;1.74;-8.06;16.88
5.66;16.77;31.69;1.74;-9.69;12.09
3.27;31.25;46.17;2.50;-3.27;27.33
4.79;32.89;50.20;-15.25;1.63;28.21
11.33;30.49;38.99;26.68;-20.91;27.33
28.97;30.49;36.59;29.08;-7.30;5.55
17.75;25.70;26.90;5.77;-15.35;6.43
15.35;24.07;12.41;2.50;-12.09;16.12
4.79;5.55;1.09;1.74;-7.30;1.52
10.45;1.52;-8.60;1.74;-9.69;-7.30
2.40;-8.93;-21.45;-2.29;-5.66;-24.18
-2.40;-20.26;-37.57;-15.25;-18.51;-42.69
-11.22;-31.58;-45.63;-2.29;-8.06;-50.75
-6.43;-37.13;-47.26;3.38;4.79;-45.96
-4.79;-30.71;-39.97;-1.52;-12.09;-24.18
-8.82;-16.23;-39.20;0.11;10.45;-24.18
-10.45;-26.68;-27.12;-4.68;8.82;-21.02
-22.54;-20.26;-44.00;-3.92;8.82;-4.03
17.75;-12.96;-6.97;0.87;9.69;7.19
27.44;5.55;11.54;3.38;8.06;4.03
28.97;4.68;24.50;-2.29;6.43;9.58
33.00;-7.41;41.38;0.11;3.16;24.18
11.33;32.89;42.14;6.53;2.40;43.45
-41.06;41.82;50.20;8.93;-2.40;43.45
-45.96;32.89;35.72;3.38;-5.66;35.39
-33.00;31.25;36.59;6.53;-8.06;25.70
-43.45;22.43;29.29;-0.65;-7.30;16.88
-0.76;18.40;18.84;-1.52;0.76;9.58
5.66;3.05;-15.03;-2.29;-5.66;1.52
-15.25;-38.01;-9.37;0.11;-6.43;1.52
7.30;-11.43;-23.09;-2.29;13.72;-10.56
2.40;-23.52;-39.97;-3.16;-0.00;-15.35
2.40;-33.98;-46.39;-2.29;4.79;-24.18
-4.79;-35.61;-47.26;-7.95;4.79;-34.63
-13.72;-38.01;-39.97;-7.95;4.79;-37.90
-7.19;-31.58;-37.57;-2.29;8.06;-36.26
-4.79;-31.58;-31.91;1.74;6.43;-45.19
-10.45;-21.02;-15.79;-6.32;1.63;-37.90
-8.06;-9.80;-2.07;-32.89;4.79;-10.56
10.45;1.52;10.78;37.13;2.40;16.12
45.96;10.35;18.84;0.11;5.66;32.23
28.97;25.70;42.14;10.56;2.40;49.11
16.88;30.49;49.44;8.17;-5.66;18.51
3.27;32.89;44.65;8.93;-4.90;13.61
8.06;31.25;39.75;8.93;2.40;11.22
38.66;32.89;34.96;8.17;-4.03;32.23
-0.76;24.07;32.56;5.77;-1.63;26.57
13.72;20.80;24.50;4.90;0.76;-0.00
20.91;9.58;5.12;3.38;-7.30;-12.09
11.33;-2.50;-10.13;-2.29;-4.90;1.52
27.44;-6.53;-19.82;14.59;-4.03;16.12
21.78;-20.26;-35.17;-0.65;16.88;-13.72
40.29;-33.11;-44.87;-25.70;1.63;-18.51
-27.33;-33.98;-47.26;-2.29;0.76;-11.33
-8.06;-33.98;-44.00;-6.32;4.03;12.85
-68.50;-33.11;-37.57;-2.29;6.43;-6.53
-52.38;-29.08;-27.88;-5.55;-18.51;-25.05
-39.42;-19.49;-18.19;0.11;-8.06;-24.18
-43.45;-11.43;-4.57;0.11;7.19;-11.33
-22.54;5.55;9.15;-2.29;10.45;17.64
-5.66;-4.90;24.50;0.11;5.66;16.88
18.51;16.77;33.32;2.50;4.03;20.15
28.97;28.86;46.17;4.90;8.06;18.51
49.99;38.55;50.20;10.56;1.63;36.26
46.72;33.76;43.02;3.38;12.09;28.97
24.94;31.25;38.11;6.53;-6.43;29.73
-2.40;19.17;26.90;-12.74;-13.72;1.52
-0.76;17.64;12.41;-2.29;-16.12;-0.87
29.84;0.65;-1.31;32.34;-8.06;1.52
11.33;-7.41;-11.76;-0.65;-2.40;-12.09
-5.66;18.40;-22.22;-2.29;-3.27;-16.12
-7.19;-20.26;-37.57;2.50;-2.40;-37.90
-10.45;-30.71;-40.84;-3.16;-6.43;-46.72
-17.75;-32.34;-48.02;-3.16;0.76;-48.35
-17.75;-33.11;-25.48;-6.32;33.00;-35.50
-24.94;-32.34;-40.84;26.68;4.79;-29.84
-26.57;-23.52;-27.88;-2.29;26.57;-8.93
-18.51;-16.23;-15.79;-3.16;8.82;15.25
-23.30;-16.99;2.72;-11.22;5.66;33.00
21.78;3.05;14.81;-0.65;12.85;45.85
49.11;4.68;24.50;2.50;0.76;49.11
24.18;22.43;35.72;3.38;3.16;35.39
29.84;32.13;39.75;7.41;-0.87;26.57
28.97;36.15;50.20;10.56;-3.27;26.57
20.91;34.52;38.99;1.74;-9.69;8.82
-13.72;38.55;39.75;-3.16;-6.43;10.45
-13.72;31.25;29.29;4.14;-12.85;1.52
-8.06;16.77;15.57;5.77;-9.69;-8.06
-2.40;5.55;1.09;-1.52;-6.43;-23.41
-4.79;-2.50;-13.39;-3.16;2.40;-23.41
-8.82;-40.40;-15.79;-1.52;1.63;-14.48
-4.79;-17.86;-34.30;-2.29;2.40;-19.38
3.27;-32.34;-45.63;-2.29;16.12;-10.56
-8.06;-40.40;-40.84;-3.92;4.79;-26.57
-8.82;-32.34;-35.94;3.38;4.79;-37.90
-20.91;-33.98;-39.20;-2.29;9.69;-25.05
-22.54;-30.71;-27.12;-6.32;9.69;-24.18
-20.15;-18.62;-13.39;-31.25;8.06;-10.56
-9.69;-8.93;0.33;0.11;8.82;8.82
-18.51;-24.28;10.78;-6.32;2.40;20.15
4.79;14.37;20.47;24.28;4.79;28.97
12.85;25.70;31.69;0.87;-15.35;38.66
12.09;31.25;46.17;3.38;3.16;40.29
-0.76;52.27;47.04;0.11;-4.03;18.51
4.03;32.13;37.35;-0.65;-6.43;24.94
28.97;32.13;67.19;1.74;-10.45;16.88
44.32;29.73;28.53;0.11;-4.90;7.19
30.60;16.77;22.11;6.53;-0.87;4.79
16.12;7.08;1.96;2.50;-2.40;-5.66
-31.36;3.92;-8.60;-1.52;-17.75;-25.05
-49.11;-0.11;-15.03;2.50;-20.91;-31.47
-26.57;-24.28;-35.94;-13.61;-10.45;-37.13
-48.35;-32.34;-42.36;0.11;3.16;-48.35
-20.91;-33.98;-44.00;-2.29;4.79;-44.32
2.40;-31.58;-39.97;-2.29;5.66;-29.08
1.63;-38.01;-39.97;-3.92;6.43;-19.38
8.06;-31.58;-31.15;-4.68;8.82;-6.53
10.45;-22.65;-14.16;0.11;11.22;9.58
20.15;-10.56;0.33;1.74;4.79;33.00
8.82;4.68;10.78;0.11;8.06;51.51
-4.79;5.55;20.47;-1.52;7.19;55.54
-24.94;19.17;34.96;3.38;4.03;31.36
-12.09;23.20;49.44;3.38;2.40;12.85
-28.21;34.52;42.14;7.41;0.76;2.40
28.97;29.73;36.59;4.90;-0.00;1.52
28.97;33.76;40.62;5.77;-3.27;16.88
20.15;28.10;31.69;4.90;-8.06;37.79
12.85;14.37;31.69;-1.52;-2.40;0.76
15.35;16.01;-0.54;-0.65;-6.43;-12.96
12.09;-29.08;-16.66;-2.29;-3.27;-22.54
4.03;-8.17;-27.12;-0.65;-4.03;-8.93
-11.22;-31.58;-36.81;-5.55;-0.00;-12.96
-28.21;-34.74;-48.02;-4.68;-4.03;-23.41
-33.87;-29.95;-50.42;-4.68;4.03;-24.18
-0.76;-35.61;-43.23;-3.92;7.19;-9.69
1.63;-33.98;-31.91;-0.65;4.79;-8.93
3.27;-25.92;-31.15;0.11;-0.87;4.03
2.40;-24.28;-15.03;0.11;0.76;-5.66
3.27;-7.41;-2.07;-28.86;0.76;-16.99
3.27;2.29;10.78;-0.65;1.63;6.43
1.63;11.11;20.47;-0.65;-4.90;12.85
2.40;23.20;34.96;0.87;3.16;25.70
3.27;26.46;34.96;0.11;-0.00;25.70
2.40;36.15;45.41;3.38;-0.87;17.64
15.35;32.13;42.14;33.98;-0.00;16.88
28.97;35.28;41.38;5.77;-5.66;13.61
15.35;26.46;26.14;-2.29;-4.03;9.58
11.33;26.46;15.57;-2.29;-5.66;7.19
4.79;10.35;-1.31;4.14;-4.03;-2.50
-1.63;6.32;-13.39;-3.16;-2.40;-12.09
-11.22;-10.56;-26.24;-6.32;10.45;-18.51
-5.66;-8.17;-36.81;-1.52;4.79;-24.18
-13.72;-31.58;-52.05;-3.16;0.76;-25.05
-0.76;-45.19;-43.23;-2.29;4.79;-24.18
-21.78;-29.08;-40.84;-6.32;7.19;-47.59
-18.51;-32.34;-36.81;-29.73;4.79;-32.23
-5.66;-23.52;-26.24;-3.92;12.85;-23.41
-11.22;-20.26;-10.13;1.74;13.72;-13.72
-1.63;-12.20;-1.31;4.90;7.19;1.52
29.84;3.05;3.48;0.87;5.66;41.06
23.41;5.55;24.50;1.74;-0.87;51.51
16.88;16.01;38.11;-3.16;4.79;65.99
-4.03;33.76;45.41;0.87;-0.00;33.00
-18.51;36.92;29.29;3.38;-12.85;25.70
-21.78;32.89;26.90;1.74;-13.72;2.40
-4.03;32.89;36.59;1.74;-16.12;-3.27
14.48;30.49;29.29;4.90;-5.66;-4.03
-14.48;22.43;12.41;4.90;-12.09;-21.78
21.78;7.08;-6.97;0.11;-6.43;-24.18
32.23;-6.53;-15.03;-2.29;-6.43;-18.51
4.03;-11.43;-11.76;-2.29;0.76;-5.66
4.03;-19.49;-35.94;1.74;2.40;-16.12
-0.76;-28.31;-43.23;-6.32;2.40;-12.96
-10.45;-32.34;-43.23;-2.29;6.43;-9.69
-35.39;-38.77;-41.60;-26.46;8.82;-12.96
-15.25;-37.13;-39.97;0.87;13.72;-20.15
-15.25;-25.05;-27.12;-0.65;5.66;-24.18
-8.82;-21.02;-18.19;-5.55;-26.57;-23.41
-8.82;-10.56;-1.31;-5.55;1.63;-5.66
4.03;-3.38;11.54;2.50;8.06;27.33
11.33;11.11;22.11;3.38;10.45;27.33
8.82;25.70;37.35;0.11;4.79;23.30
37.03;31.25;43.02;1.74;-5.66;8.82
50.75;31.25;44.65;0.11;4.79;7.19
54.78;36.92;44.65;8.93;3.16;12.09
39.53;33.76;41.38;1.74;-7.30;20.15
16.12;33.76;33.32;10.56;-5.66;35.39
-31.36;34.52;17.21;-15.25;-7.30;16.12
-29.84;16.77;-0.54;-0.65;-8.82;-22.54
-44.32;-5.77;-11.00;-2.29;-8.06;-44.32
-74.16;-12.20;-23.09;-11.22;-4.03;-37.13
-32.23;-20.26;-37.57;-28.86;-0.87;-29.84
-14.48;-24.28;-42.36;-3.16;-0.00;-7.30
-13.72;-33.98;-38.33;-6.32;3.16;2.40
-10.45;-31.58;-41.60;-4.68;4.79;0.76
3.27;-28.31;-48.90;-2.29;12.09;1.52
13.72;-12.20;-26.24;6.53;-0.87;8.82
10.45;-20.26;-22.22;-3.92;14.48;1.52
14.48;-15.46;-1.31;-1.52;0.76;5.55
-10.45;-1.74;10.02;-2.29;6.43;18.51
-0.76;3.92;15.57;1.74;4.79;22.54
16.12;16.77;32.56;0.87;12.09;16.88
5.66;30.49;38.11;5.77;-6.43;27.33
8.82;32.89;43.78;3.38;-16.88;13.61
29.84;32.13;41.38;0.87;-12.09;12.85
24.18;57.06;41.38;8.93;-12.09;25.70
16.88;27.22;29.29;3.38;-12.85;12.85
3.27;16.77;14.05;-2.29;-5.66;-1.63
-3.16;11.11;-1.31;1.74;-3.27;-9.69
-13.72;-0.11;-8.60;5.77;-4.03;-19.38
-2.40;-10.56;-17.42;-0.65;-2.40;-33.11
-9.69;-22.65;-34.30;12.96;4.79;-42.69
-5.66;-35.61;-42.36;-4.68;0.76;-24.18
-1.63;-37.13;-47.26;0.11;0.76;-29.84
-5.66;-32.34;-37.57;-1.52;2.40;-13.72
-1.63;-37.13;-36.81;-11.22;26.57;-24.18
-7.19;-22.65;-34.30;-3.16;-3.27;-31.47
-8.06;-25.05;-20.69;-2.29;5.66;-12.96
0.87;-8.17;-0.54;-3.16;2.40;-0.00
4.03;5.55;13.18;2.50;4.79;12.09
2.40;9.58;18.84;8.17;-2.40;4.03
2.40;16.77;38.99;-2.29;0.76;10.45
7.30;32.13;50.20;3.38;-3.27;12.85
5.66;28.86;51.07;0.11;-7.30;-8.93
16.12;0.65;44.65;11.43;-9.69;9.58
41.06;44.21;48.68;3.38;0.76;26.57
20.91;31.25;34.09;10.56;1.63;15.25
3.27;26.46;22.11;4.90;-6.43;24.94
0.87;8.71;1.09;-3.92;-2.40;27.33
-2.40;-7.41;-11.76;0.11;-3.27;19.28
-2.40;-19.49;-24.72;-1.52;28.97;1.52
-5.66;-21.02;-39.20;-1.52;4.79;-19.38
-13.72;-34.74;-48.90;0.11;4.79;-29.08
-16.88;-37.13;-47.26;-4.68;9.69;-25.05
-43.45;-34.74;-44.00;17.86;2.40;-12.09
-17.75;-34.74;-39.20;-7.95;7.19;1.52
-18.51;-33.98;-24.72;-7.95;7.19;16.88
-5.66;-21.02;-21.45;-0.65;8.06;26.57
4.03;-9.80;-1.31;0.11;-20.91;23.30
-6.43;3.05;14.05;-15.25;4.79;7.19
-4.79;20.80;20.47;6.53;2.40;7.19
6.43;-8.17;34.09;-0.65;2.40;8.82
4.03;31.25;39.75;8.17;4.03;1.52
-5.66;31.25;43.02;8.17;15.25;4.03
21.78;32.13;35.72;8.17;-4.03;4.03
-1.63;28.10;38.11;1.74;-8.06;14.48
-15.25;19.17;24.50;4.90;-8.82;9.58
-5.66;10.35;12.41;0.11;-8.06;-4.90
13.72;-14.59;-1.31;2.50;-4.90;8.82
37.90;1.52;-15.03;-2.29;-6.43;5.55
29.84;-7.41;-26.24;-2.29;-43.56;-24.18
12.09;-27.55;-39.97;-0.65;-5.66;-25.05
2.40;-27.55;-44.00;-2.29;4.79;-26.57
-7.19;-33.98;-47.26;-4.68;4.79;-12.09
-7.19;-50.86;-38.33;-4.68;4.79;-18.51
-22.54;-40.40;-38.33;-6.32;8.82;-18.51
-20.91;5.55;-26.24;-3.16;9.69;-23.41
-15.25;-19.49;-15.03;-0.65;6.43;-11.33
-18.51;-7.41;-1.31;-2.29;4.79;3.16
2.40;3.92;11.54;-1.52;16.88;5.55
28.97;9.58;22.87;1.74;4.79;16.12
26.57;28.86;35.72;4.90;4.03;27.33
34.63;16.77;44.65;8.93;-8.06;29.73
30.60;44.21;45.41;6.53;-8.82;39.42
17.75;31.25;55.10;4.90;-0.00;40.29
5.66;31.25;36.59;8.93;-0.87;33.00
-18.51;31.25;31.69;7.41;-2.40;16.88
-26.57;29.73;17.21;-2.29;-5.66;4.03
3.27;4.68;-0.54;-0.65;-9.69;-12.96
-22.54;-3.38;-10.13;-2.29;-4.03;-15.35
-16.88;-12.20;-27.12;-2.29;-7.30;-29.08
-20.15;-21.02;-39.97;-6.32;-4.03;-41.16
-17.75;-27.55;-48.90;-3.92;1.63;-25.05
-0.76;-33.98;-50.42;-1.52;5.66;-34.63
38.66;-34.74;-41.60;-14.37;-3.27;-39.53
44.32;-35.61;-44.00;-6.32;0.76;-23.41
39.53;-28.31;-27.12;-3.16;16.88;-7.30
2.40;-19.49;-21.45;-2.29;9.69;1.52
-69.26;-20.26;-1.31;-1.52;11.22;-4.03
-78.19;11.11;15.57;4.90;10.45;-7.30
-37.03;9.58;17.21;0.11;7.19;7.19
-48.35;18.40;30.06;2.50;22.54;16.12
-15.25;28.86;64.80;5.77;1.63;16.88
10.45;35.28;43.02;6.53;2.40;16.88
17.75;32.13;41.38;3.38;3.16;15.25
20.91;28.86;42.14;1.74;-8.82;1.52
53.14;24.07;27.66;2.50;-5.66;-2.50
42.69;20.04;22.11;1.74;-5.66;12.85
10.45;6.32;0.33;-2.29;-8.06;10.45
-18.51;-12.20;-11.76;-30.49;-20.91;4.79
-22.54;-12.96;-23.85;-3.92;-12.09;8.82
-11.22;-20.26;-52.93;-3.16;-0.87;16.88
1.63;-18.62;-39.97;-3.16;8.82;3.16
-10.45;-30.71;-40.84;10.56;12.09;-23.41
0.00;-29.95;-39.20;-2.29;8.82;-24.18
-4.03;-30.71;-44.00;1.74;9.69;-25.81
-8.82;-28.31;-23.85;0.11;8.06;-22.54
-0.76;-19.49;-11.00;-1.52;6.43;-7.30
18.51;-3.38;-1.31;-4.68;8.06;-3.27
7.30;4.68;11.54;-1.52;-2.40;1.52
8.06;7.95;18.84;1.74;-8.06;17.64
17.75;29.73;30.06;0.87;-0.00;25.70
12.09;28.86;45.41;8.17;2.40;27.33
10.45;36.15;45.41;3.38;4.79;24.94
-0.76;33.76;39.75;8.17;4.03;18.51
1.63;28.10;38.11;2.50;-0.87;12.09
4.03;29.73;55.10;1.74;4.79;10.45
-2.40;20.04;19.60;-0.65;-8.06;-2.50
-8.82;3.92;0.33;-12.74;-16.12;-15.35
8.06;-0.11;-5.34;-2.29;-12.09;2.40
16.88;-10.56;-23.09;-19.17;-4.90;0.76
28.97;-20.26;-41.60;4.90;-7.30;-11.33
2.40;-31.58;-54.45;-5.55;-2.40;-23.41
-29.84;-32.34;-47.26;-3.16;0.76;-25.05
-48.35;-34.74;-45.63;-9.58;4.03;-20.15
-48.35;-32.34;-40.84;-1.52;21.78;-34.63
-35.39;-43.67;-31.15;-0.65;13.72;-37.13
-9.69;-22.65;-17.42;-1.52;4.79;-16.99
-4.79;14.37;-2.07;-2.29;4.79;1.52
25.81;3.05;18.84;-0.65;6.43;33.76
52.38;20.04;23.63;36.37;14.48;58.81
45.08;32.13;44.65;8.93;6.43;46.72
26.57;36.92;49.44;2.50;-10.45;10.45
3.27;36.15;43.02;3.38;-10.45;7.19
2.40;31.25;28.53;1.74;-8.06;-17.75
-0.76;32.89;43.02;1.74;-7.30;-28.21
8.82;22.43;26.90;-4.68;-7.30;-33.87
24.94;14.37;11.54;0.87;-7.30;-21.78
24.94;-7.41;-5.34;-1.52;-6.43;-8.93
5.66;3.92;-15.03;-2.29;-3.27;5.55
-0.76;-9.80;-19.82;-3.16;5.66;5.55
-45.96;-15.46;-35.17;-1.52;8.82;-11.33
-58.81;-33.11;-47.26;-3.92;5.66;-21.78
-37.03;-31.58;-48.90;-5.55;-21.78;-26.57
-4.03;-34.74;-44.00;-3.16;4.79;-24.18
-20.15;-33.11;-39.97;-7.19;4.79;-4.03
8.82;-24.28;-26.24;-0.65;9.69;20.15
28.21;-15.46;-5.34;-1.52;2.40;27.33
45.96;-11.43;-1.31;-1.52;-11.33;16.12
63.71;1.52;7.51;-0.65;-7.30;-7.30
54.78;6.32;24.50;-0.65;2.40;-29.84
37.90;22.43;41.38;3.38;-3.27;-37.13
-18.51;33.76;48.68;25.05;-0.00;-24.18
-66.10;36.15;47.04;4.90;-3.27;16.12
-49.99;31.25;45.41;1.74;-4.03;45.85
-49.11;31.25;35.72;2.50;-2.40;79.71
-38.66;20.80;24.50;6.53;-3.27;73.29
-10.45;19.17;15.57;5.77;-0.87;51.51
7.30;6.32;-0.54;-0.65;-23.41;27.33
7.30;2.29;-10.13;2.50;-0.87;-0.87
3.27;-18.62;-22.22;0.11;-6.43;-16.12
4.03;-17.86;-39.97;-0.65;-3.27;-32.23
3.27;-25.05;-47.26;-28.10;3.16;-45.19
-5.66;-33.11;-54.45;-6.32;-4.03;-39.53
-2.40;-34.74;-44.00;-11.98;4.79;-37.13
1.63;-46.06;-39.97;-3.16;6.43;-24.18
3.27;-21.02;-31.15;1.74;8.82;-12.96
12.09;-20.26;-12.63;-3.92;12.85;1.52
13.72;-7.41;-0.54;-1.52;3.16;4.03
8.82;1.52;12.41;1.74;4.79;3.16
12.09;14.37;14.05;-2.29;2.40;20.91
11.33;18.40;32.56;2.50;4.79;10.45
7.30;32.13;43.02;1.74;4.79;12.09
4.79;36.92;41.38;2.50;-3.27;4.03
4.79;43.34;38.11;8.17;-0.87;12.09
7.30;36.92;36.59;1.74;-3.27;12.85
11.33;28.86;31.69;8.17;-4.03;9.58
20.91;14.37;13.18;2.50;-8.06;-4.03
12.09;5.55;-1.31;-4.68;4.79;-2.50
28.21;-7.41;-13.39;2.50;-5.66;-34.63
-7.19;-12.96;-21.45;6.53;1.63;-10.56
-41.06;-20.26;-35.17;-3.16;4.03;-24.18
-12.09;-29.08;-40.84;-6.32;4.79;-26.57
-30.60;-35.61;-26.24;-6.32;4.03;-25.81
-23.30;-33.11;-39.20;-1.52;6.43;-31.47
-8.82;-35.61;-40.84;-7.95;10.45;-24.18
-7.19;-25.05;-27.88;-3.16;10.45;-14.48
2.40;-16.23;-23.09;-9.58;6.43;2.40
-10.45;7.95;-1.31;-1.52;4.79;25.70
-33.00;-7.41;21.24;-0.65;-3.27;22.54
-6.43;5.55;19.60;-1.52;-0.00;41.82
-10.45;24.07;35.72;0.11;-3.27;53.14
18.51;31.25;45.41;8.17;4.03;54.78
38.66;31.25;45.41;4.90;-0.87;22.54
7.30;26.46;38.11;2.50;-12.85;1.52
36.26;29.73;37.35;-2.29;-22.54;-24.18
3.27;26.46;26.90;-28.86;-16.88;-25.81
3.27;16.77;14.81;1.74;-18.51;-12.09
28.97;14.37;-1.31;0.11;-5.66;-16.12
45.96;8.71;-10.13;8.17;4.79;5.55
4.79;-9.80;-19.06;-3.92;4.79;2.40
-6.43;-20.26;-35.17;0.11;5.66;-8.93
0.87;-27.55;-48.02;0.87;8.82;-12.09
23.41;-20.26;-47.26;1.74;4.79;-27.44
10.45;-29.08;-38.33;-3.92;4.79;-38.66
-8.82;-33.11;-35.94;-3.16;10.45;-41.16
-20.15;-25.05;-27.12;1.74;4.79;-31.47
-3.16;-20.26;-12.63;-5.55;-1.63;-12.09
-37.03;-8.93;-1.31;-3.16;-0.87;27.33
-20.15;1.52;11.54;-3.92;-8.82;49.11
0.87;4.68;22.11;-0.65;-4.03;66.86
58.81;3.05;34.09;9.80;5.66;80.48
28.97;34.52;45.41;8.93;4.79;50.75
34.63;38.55;39.75;2.50;4.03;28.21
3.27;36.92;41.38;2.50;4.03;1.52
-60.44;31.25;52.71;8.93;0.76;4.03
-32.23;22.43;27.66;8.17;0.76;-31.47
-48.35;10.35;17.21;7.41;-5.66;-41.93
-22.54;5.55;3.48;-5.55;-6.43;-41.93
3.27;2.29;-15.79;-4.68;-6.43;-24.18
8.06;-8.17;-23.09;1.74;0.76;-4.03
-23.30;-22.65;-29.51;-0.65;12.09;-22.54
2.40;-24.28;-40.84;-3.92;-16.12;-14.48
-4.79;-41.16;-44.87;-2.29;5.66;-16.12
-4.79;-40.40;-41.60;-3.16;8.82;-8.93
-4.79;-33.98;-39.20;-6.32;5.66;-10.56
-0.76;-28.31;-27.12;-3.92;38.66;-4.03
7.30;-18.62;-15.79;25.92;9.69;13.61
14.48;-6.53;0.33;-2.29;19.28;50.75
12.85;5.55;24.50;-1.52;7.19;41.06
11.33;10.35;24.50;5.77;18.51;28.21
3.27;53.91;36.59;8.17;4.79;12.85
4.79;27.22;42.14;-12.74;7.19;16.88
7.30;30.49;41.38;0.11;0.76;40.29
3.27;28.10;35.72;2.50;-16.88;-0.00
10.45;24.07;37.35;1.74;-8.82;15.25
28.97;32.13;26.14;-0.65;-8.82;4.03
36.26;24.07;11.54;7.41;-24.94;-8.93
14.48;4.68;-15.03;0.11;-17.75;-38.66
-8.82;-9.80;-12.63;-0.65;-49.11;-51.62
-17.75;-8.93;-23.85;-10.35;-41.06;-44.32
-33.00;-21.89;-39.97;-9.58;-10.45;-26.57
-26.57;-33.98;-44.87;-2.29;4.79;-18.51
-22.54;-33.11;-47.26;-6.32;-12.09;-21.78
-22.54;-33.98;-39.97;-3.16;13.72;-16.12
-4.03;-37.13;-39.20;-0.65;16.12;-16.99
2.40;-22.65;-49.66;-3.16;4.79;-0.00
-0.76;-20.26;-11.00;0.11;17.75;7.19
3.27;-6.53;1.09;1.74;9.69;19.28
0.87;4.68;10.78;22.65;9.69;5.55
2.40;7.95;24.50;-1.52;21.78;13.61
4.79;17.64;36.59;6.53;4.79;26.57
8.82;31.25;47.81;2.50;4.79;35.39
16.12;32.13;39.75;-3.16;-10.45;19.28
14.48;24.07;51.07;5.77;-3.27;25.70
20.91;32.13;41.38;3.38;-8.82;31.36
-1.63;23.20;26.14;4.90;-8.82;19.28
-8.06;24.07;30.06;4.90;-5.66;9.58
-19.28;5.55;-1.31;3.38;-4.03;-6.53
-20.15;-0.11;-27.12;0.87;-4.03;-20.15
-22.54;-8.17;-19.82;8.93;-12.85;-24.18
-2.40;-18.62;-38.33;-3.16;-4.03;-21.78
-4.03;-33.98;-39.97;-6.32;-3.27;-28.21
-15.25;-30.71;-42.36;-1.52;4.03;-33.87
5.66;-27.55;-27.88;-4.68;1.63;-33.11
14.48;-25.05;-39.20;-3.16;6.43;-25.81
-0.76;-25.05;-26.24;-3.16;5.66;-20.15
28.21;-17.86;-18.19;-3.92;4.79;-7.30
24.18;-12.20;12.41;0.11;4.79;19.28
-4.03;4.68;18.84;0.11;7.19;41.82
12.09;16.01;24.50;2.50;-0.87;23.30
15.35;29.73;38.11;2.50;4.79;27.33
-4.03;31.25;46.17;1.74;2.40;29.73
-19.28;31.25;47.04;0.87;0.76;31.36
-22.54;26.46;36.59;6.53;-8.82;27.33
28.21;32.89;38.11;5.77;-13.72;20.15
3.27;24.07;30.06;0.11;-8.82;14.48
6.43;11.11;17.21;4.90;-8.06;3.16
8.06;9.58;0.33;0.11;-5.66;-3.27
8.82;0.65;-11.00;-0.65;-5.66;-8.06
3.27;-8.93;-25.48;-1.52;-4.90;-24.18
-10.45;-21.02;-37.57;3.38;-7.30;-25.05
-11.22;-30.71;-43.23;-0.65;2.40;-24.18
2.40;-33.98;-42.36;-10.35;4.79;-31.47
1.63;-33.11;-40.84;-3.16;8.82;-24.18
-1.63;-37.13;-37.57;-9.58;4.79;-23.41
-4.79;-24.28;-26.24;-11.98;6.43;-15.35
-17.75;-17.86;-15.03;4.90;9.69;-1.63
-15.25;-7.41;2.72;-1.52;12.09;-12.09
25.81;1.52;15.57;3.38;5.66;-9.69
29.84;6.32;22.11;-1.52;5.66;16.88
33.00;17.64;36.59;5.77;4.79;48.35
28.97;31.25;46.17;1.74;8.82;41.06
-23.30;7.95;39.75;-1.52;8.82;42.69
-31.36;31.25;34.96;0.11;-8.82;27.33
-43.45;27.22;37.35;10.56;-12.85;14.48
-41.06;13.61;23.63;2.50;-20.91;10.45
-13.72;18.40;16.44;-28.10;-20.91;-11.33
4.79;3.05;-1.31;11.43;-19.38;-10.56
4.79;-0.11;-15.03;-1.52;-8.06;1.52
3.27;-16.23;-6.10;0.87;-5.66;-11.33
-0.76;-12.20;-36.81;-2.29;3.16;-23.41
-1.63;-29.08;-39.97;-3.16;4.79;-29.84
1.63;-34.74;-40.84;-7.95;5.66;-29.08
8.82;-33.98;-47.26;32.34;7.19;-23.41
13.72;-25.92;-35.94;-4.68;4.79;-5.66
8.82;-21.89;-28.75;-3.92;1.63;-16.99
-8.06;-20.26;-6.10;-3.92;4.03;-15.35
-37.03;-8.17;-2.94;-28.10;3.16;-4.03
14.48;-7.41;14.05;-26.46;5.66;4.03
-9.69;14.37;20.47;1.74;4.79;1.52
-8.82;27.22;38.99;1.74;3.16;7.19
4.03;30.49;58.26;3.38;5.66;44.32
-0.76;32.13;38.99;3.38;3.16;70.89
13.72;30.49;39.75;2.50;1.63;79.71
45.96;38.55;41.38;6.53;4.03;71.66
41.06;28.86;42.14;6.53;4.03;24.94
33.00;19.17;3.48;5.77;1.63;-10.56
19.38;5.55;-18.19;-3.92;1.63;-2.50
6.43;-6.53;-27.12;-15.25;-3.27;-31.47
2.40;-13.83;-27.88;-3.92;-20.15;-42.69
-12.09;-19.49;-43.23;-0.65;-5.66;-49.99
-37.90;-25.92;-47.26;-2.29;1.63;-58.81
-37.90;-58.91;-48.90;-9.58;4.79;-66.10
-2.40;-35.61;-40.84;-3.16;16.12;-36.26
3.27;-34.74;-35.17;-1.52;10.45;-11.33
-8.06;-25.92;-27.12;-6.32;-2.40;-5.66
-22.54;-21.02;-11.76;-9.58;-19.38;-24.18
-48.35;-7.41;0.33;-22.43;-8.82;-25.05
-50.75;28.86;11.54;-28.86;0.76;-9.69
-10.45;7.95;23.63;3.38;-7.30;5.55
3.27;26.46;41.38;0.87;-15.35;16.88
11.33;6.32;50.20;4.90;-5.66;36.26
13.72;35.28;44.65;3.38;0.76;38.66
16.12;41.82;43.02;8.17;6.43;40.29
34.63;33.76;43.02;9.80;8.82;21.67
16.12;32.13;24.50;4.90;0.76;25.70
-31.36;20.80;29.29;8.17;-0.00;-6.53
-8.82;7.95;8.39;3.38;4.79;-3.27
30.60;-0.98;-12.63;-2.29;-5.66;-0.87
-4.03;12.74;-22.22;-3.92;-0.87;12.85
28.97;-21.89;-40.84;-2.29;4.03;4.03
31.47;-33.98;-44.87;-3.92;5.66;-13.72
-0.76;-40.40;-40.84;-11.22;4.79;-24.18
-10.45;-37.13;-39.97;7.41;5.66;-24.18
-9.69;-34.74;-44.87;-3.16;10.45;-21.02
-14.48;-35.61;-24.72;-3.16;13.72;-3.27
-20.15;-14.59;-15.03;-2.29;16.88;4.03
-20.15;-5.77;-2.07;-0.65;7.19;23.30
-2.40;5.55;12.41;-1.52;8.06;-10.56
-4.79;9.58;23.63;2.50;-0.87;1.52
29.84;24.07;37.35;5.77;-4.03;-8.06
31.47;33.76;45.41;-3.92;-8.82;50.75
20.15;36.92;45.41;5.77;-12.09;51.51
26.57;29.73;41.38;8.93;-6.43;42.69
4.79;16.77;36.59;5.77;-8.82;24.94
-4.03;27.22;30.06;3.38;-2.40;39.42
23.41;15.14;14.05;8.93;-21.78;41.82
16.88;9.58;0.33;-1.52;4.03;4.79
15.35;1.52;-8.60;0.11;-1.63;-14.48
-2.40;-9.80;-18.19;-3.92;-3.27;-25.05
-52.38;-16.23;-29.51;-3.16;4.03;-24.18
-60.44;-24.28;-38.33;-3.16;2.40;-31.47
-47.48;-38.01;-42.36;-35.28;4.03;-24.18
-58.81;-42.04;-9.37;-6.32;7.19;-30.60
-22.54;-42.04;-38.33;-3.16;-8.82;-25.81
1.63;-29.08;-21.45;16.23;15.25;-21.02
5.66;-15.46;4.36;-4.68;2.40;-11.33
8.82;-5.77;1.09;-0.65;4.03;-0.00
24.18;5.55;15.57;-0.65;4.03;2.40
15.35;20.80;22.11;-0.65;4.79;9.58
0.87;20.80;31.69;-2.29;0.76;24.18
16.88;31.25;38.99;1.74;-2.40;22.54
20.15;35.28;44.65;6.53;-8.06;40.29
8.82;32.13;43.02;3.38;-2.40;29.73
12.09;30.49;38.99;-2.29;-10.45;29.73
11.33;28.86;24.50;-0.65;-5.66;16.88
3.27;13.61;10.78;-29.73;-7.30;10.45
-9.69;5.55;-1.31;4.90;-4.90;-2.50
-4.03;5.55;-10.13;-1.52;-0.00;-2.50
3.27;-12.96;-23.85;-0.65;2.40;-14.48
-13.72;-20.26;-39.20;-10.35;-5.66;-62.07
-9.69;-32.34;-52.05;-4.68;-25.81;-40.29
24.94;-33.98;-39.97;-19.17;4.03;-21.78
27.44;-25.92;-39.97;-3.16;4.79;-31.47
9.69;-32.34;-38.33;-4.68;1.63;-27.44
-5.66;-25.92;-27.12;-3.16;0.76;-18.51
-22.54;-20.26;-11.76;-2.29;4.79;-1.63
-45.96;-11.43;-0.54;26.68;16.88;0.76
-17.75;-0.11;9.15;8.17;9.69;5.55
4.03;14.37;12.41;8.93;6.43;25.70
20.15;23.20;36.59;3.38;4.03;54.78
20.15;28.86;45.41;8.17;2.40;27.33
19.38;31.25;39.75;3.38;3.16;24.18
17.75;31.25;47.04;8.17;0.76;28.97
4.79;33.76;39.75;6.53;-5.66;26.57
-6.43;20.80;26.14;2.50;0.76;12.09
-7.19;20.80;14.05;5.77;-5.66;21.67
-4.03;5.55;7.51;-1.52;-2.40;-18.51
-15.25;-2.50;-8.60;-2.29;2.40;-11.33
-7.19;-16.23;-19.82;-1.52;4.03;-3.27
15.35;-20.26;-38.33;34.74;-9.69;-31.47
-13.72;-27.55;-40.84;-8.71;1.63;-26.57
-8.82;-32.34;-39.97;-3.92;-15.35;-16.99
-14.48;-29.08;-31.15;-12.74;3.16;-12.96
-0.76;-29.08;-34.30;-1.52;10.45;-5.66
-4.79;-20.26;-19.82;4.90;16.12;9.58
-7.19;-19.49;-8.60;-1.52;-4.03;5.55
4.79;-8.93;4.36;-0.65;-8.82;5.55
-12.09;3.92;13.18;-1.52;5.66;-4.90
-20.91;7.95;45.41;0.11;7.19;12.85
-7.19;28.86;36.59;-3.16;8.82;-0.00
-13.72;28.86;41.38;22.65;-0.00;-5.66
-16.88;57.93;46.17;9.80;-5.66;-16.12
54.78;32.13;26.14;2.50;-4.03;-0.00
92.67;35.28;48.68;3.38;-5.66;10.45
54.78;27.22;26.90;-0.65;-7.30;19.28
-22.54;16.77;12.41;1.74;-9.69;7.19
-45.96;17.64;2.72;1.74;-12.85;-2.50
-20.91;4.68;-13.39;-6.32;-19.38;4.03
30.60;-9.80;-25.48;-6.32;-1.63;3.16
-8.06;-24.28;-35.94;14.59;0.76;-24.18
7.30;-33.98;-67.41;-6.32;0.76;-19.38
-16.88;-46.06;-42.36;-3.16;4.03;-26.57
-21.78;-30.71;-22.22;-3.92;18.51;-24.18
-21.78;-35.61;-17.42;-2.29;7.19;-11.33
-20.15;-32.34;-6.10;21.02;9.69;-12.09
-21.78;-22.65;-1.31;-3.92;-13.72;-20.15
-7.19;-14.59;11.54;2.50;11.22;16.88
24.18;4.68;22.87;9.80;16.88;45.85
33.00;17.64;25.26;2.50;12.09;37.79
11.33;31.25;36.59;-2.29;4.03;27.33
-2.40;29.73;42.14;-1.52;2.40;33.00
3.27;39.31;38.99;8.17;-5.66;32.23
16.88;36.15;35.72;-1.52;-3.27;27.33
-2.40;35.28;44.65;3.38;-2.40;25.70
3.27;30.49;20.47;2.50;-8.82;-0.87
13.72;18.40;6.75;1.74;-25.81;-34.63
20.15;12.74;-6.10;10.56;-16.88;-24.18
26.57;-3.38;-15.79;-1.52;-2.40;-22.54
11.33;-9.80;-19.06;-7.19;-20.15;-45.19
-22.54;-21.02;-44.87;-1.52;-7.30;-38.66
-74.16;-34.74;-55.32;-7.19;7.19;-11.33
-48.35;-37.13;-61.75;-4.68;7.19;-6.53
-22.54;-33.98;-48.90;-3.92;7.19;-37.90
-8.82;-37.13;-44.87;-7.19;6.43;-9.69
-0.76;-24.28;-32.78;0.11;13.72;1.52
-4.79;-14.59;-25.48;-2.29;6.43;10.45
-8.06;-8.17;-6.97;-2.29;4.79;14.48
3.27;7.95;9.15;-0.65;4.79;-4.90
-8.82;10.35;36.59;1.74;-5.66;-6.53
-7.19;28.10;34.96;-7.95;-12.09;-8.06
20.91;31.25;47.81;3.38;-0.87;-20.15
3.27;33.76;38.99;8.17;2.40;18.51
8.82;24.07;38.11;14.59;-5.66;38.66
15.35;39.31;40.62;0.11;-3.27;52.38
12.09;24.07;25.26;-7.19;-4.90;54.78
8.82;10.35;13.18;-3.16;-7.30;2.40
4.03;5.55;-2.07;-3.92;-6.43;12.85
2.40;-8.93;-17.42;-28.86;-0.00;8.82
1.63;-14.59;-23.85;-2.29;-2.40;5.55
-2.40;-23.52;-47.26;-2.29;4.03;-23.41
-7.19;-46.06;-44.00;-4.68;9.69;-16.12
-1.63;-38.01;-44.00;-2.29;2.40;0.76
-21.78;-31.58;-40.84;-27.22;16.88;12.85
-22.54;-32.34;-42.36;-3.16;23.30;33.00
-22.54;-29.08;-27.12;3.38;12.85;45.08
-8.82;-16.99;-15.79;-1.52;3.16;39.42
-1.63;-8.17;-0.54;0.11;3.16;8.82
6.43;1.52;16.44;-3.92;21.78;-9.69
52.38;18.40;22.11;4.90;22.54;-45.19
50.75;31.25;36.59;1.74;5.66;-63.71
27.44;31.25;34.09;0.11;-17.75;-59.68
-4.03;27.22;39.75;-1.52;-37.90;-49.22
-2.40;31.25;34.09;-3.16;-72.53;-74.16
28.97;0.65;29.29;4.14;-63.71;-62.07
33.87;20.80;24.50;-1.52;-50.75;-55.65
11.33;21.67;10.02;-7.95;-37.90;-21.78
5.66;5.55;15.57;-2.29;-4.03;-9.69
-62.07;-8.17;-15.03;1.74;9.69;1.52
-51.51;-9.80;-16.66;2.50;16.88;10.45
-66.10;-31.58;-35.17;-2.29;4.79;-6.53
-39.42;-21.02;-57.72;-3.16;13.72;24.18
-8.82;-29.08;-44.87;-3.16;16.12;12.09
-4.03;-33.11;-38.33;-1.52;12.85;2.40
15.35;-62.94;-37.57;-2.29;20.91;1.52
-2.40;-34.74;-27.12;-1.52;21.78;6.43
16.88;-17.86;-19.06;-2.29;41.06;18.51
27.44;-4.14;-1.31;3.38;16.88;20.15
4.03;10.35;12.41;21.02;-6.43;28.21
3.27;11.11;22.11;38.77;-10.45;28.21
12.09;22.43;28.53;-6.32;4.79;28.97
-2.40;2.29;38.99;8.93;4.79;27.33
3.27;31.25;43.02;10.56;-0.00;19.28
3.27;32.13;36.59;8.93;-2.40;23.30
3.27;31.25;38.11;2.50;-3.27;25.70
3.27;31.25;22.11;1.74;-5.66;7.19
-4.79;10.35;13.18;0.11;-8.82;19.28
-9.69;4.68;-2.94;0.11;-9.69;-12.09
-13.72;-8.93;-12.63;19.49;-6.43;-24.18
-17.75;-8.17;-21.45;-3.16;-8.06;-21.78
12.09;-24.28;-44.00;-9.58;-2.40;-19.38
28.97;-25.05;-44.00;-3.16;4.03;-16.99
0.87;-37.13;-44.87;-9.58;-4.90;-12.09
-10.45;-37.13;-41.60;-6.32;22.54;-8.93
-11.22;-32.34;-61.75;-4.68;6.43;-0.87
5.66;-1.74;-27.88;0.11;10.45;-10.56
13.72;-8.93;-6.97;-0.65;12.85;-0.00
13.72;14.37;1.09;6.53;8.06;2.40
8.82;3.05;11.54;2.50;4.79;2.40
15.35;6.32;23.63;3.38;4.03;4.03
-14.48;30.49;35.72;1.74;2.40;20.15
-7.19;30.49;38.11;1.74;-4.03;12.85
-19.28;35.28;44.65;0.11;-15.35;16.88
-33.00;6.32;35.72;4.14;-12.09;16.88
-8.82;32.89;35.72;3.38;-12.85;20.15
-7.19;29.73;24.50;4.90;-12.09;5.55
-7.19;20.04;9.15;1.74;-18.51;1.52
-8.06;10.35;-1.31;-1.52;-5.66;8.82
-16.88;-4.90;-12.63;-11.98;8.06;-25.05
-15.25;-14.59;-25.48;-27.22;4.79;-13.72
-43.45;-32.34;-37.57;-7.19;4.79;-15.35
-18.51;-29.08;-42.36;-7.95;5.66;-24.18
-12.09;-34.74;-41.60;-4.68;2.40;-33.11
-4.79;-36.37;-40.84;-9.58;4.79;-8.93
18.51;-20.26;-31.91;13.83;7.19;27.33
15.35;-20.26;-18.19;6.53;12.85;39.42
4.03;-21.02;-10.13;-5.55;10.45;27.33
15.35;-6.53;1.09;7.41;12.09;19.28
31.47;5.55;14.05;2.50;14.48;6.43
8.06;9.58;23.63;0.87;9.69;-12.96
4.03;20.04;34.96;0.87;-3.27;-24.18
2.40;29.73;39.75;-2.29;-12.09;-12.96
39.53;39.31;39.75;0.11;-25.81;13.61
28.21;28.86;42.14;6.53;-25.81;1.52
2.40;36.15;34.96;3.38;-13.72;22.54
8.06;26.46;26.14;-7.19;-6.43;23.30
-8.06;16.77;9.15;3.38;3.16;32.23
-23.30;1.52;-1.31;-2.29;-2.40;2.40
-13.72;-34.74;-11.00;-5.55;-6.43;-12.96
-22.54;-11.43;-26.24;-3.16;-0.87;-19.38
-41.06;-25.05;-25.48;-5.55;-7.30;-25.05
-34.63;-34.74;-55.32;-3.16;4.79;-25.05
-20.15;-42.04;-44.00;0.87;8.82;-22.54
-32.23;-33.98;-57.72;-3.16;13.72;-21.02
-12.85;-27.55;-37.57;-35.28;8.82;-13.72
0.87;-23.52;-27.12;1.74;14.48;-6.53
5.66;-17.86;-15.03;8.17;15.25;13.61
3.27;-6.53;1.09;-2.29;6.43;22.54
2.40;5.55;10.78;6.53;13.72;32.23
19.38;7.95;20.47;5.77;13.72;28.97
28.97;30.49;38.99;0.11;6.43;25.70
-2.40;32.13;45.41;6.53;-2.40;27.33
28.21;44.21;43.02;26.68;-4.90;-7.30
16.88;32.13;25.26;6.53;-16.12;-21.02
11.33;35.28;46.17;0.11;-13.72;-4.03
0.87;36.15;23.63;2.50;-4.03;16.88
31.47;12.74;13.18;-28.10;-2.40;5.55
41.06;-1.74;-2.07;2.50;4.03;-6.53
21.78;-15.46;-28.75;-3.16;4.79;0.76
3.27;-14.59;-24.72;1.74;5.66;0.76
-48.35;-16.23;-39.20;-1.52;4.79;-7.30
-59.57;-33.98;-27.12;-2.29;5.66;-16.99
-31.36;-40.40;-41.60;-6.32;-8.06;-20.15
-27.33;-35.61;-46.39;-7.95;-34.63;-45.19
-1.63;-38.77;-35.17;-10.35;-24.94;-78.95
4.79;-27.55;-27.12;-3.16;-8.82;-73.40
4.03;-11.43;-15.79;-6.32;0.76;-62.07
2.40;4.68;1.09;-30.49;9.69;-11.33
-1.63;5.55;7.51;-0.65;8.82;11.22
3.27;14.37;23.63;0.11;8.06;26.57
12.09;25.70;34.96;8.17;4.79;37.79
24.18;38.55;49.44;9.80;4.79;40.29
41.06;69.15;47.04;16.23;4.79;50.75
54.78;35.28;40.62;1.74;-0.00;26.57
54.78;41.82;41.38;-0.65;4.79;35.39
54.78;33.76;25.26;3.38;4.79;30.60
24.18;28.10;12.41;3.38;8.82;22.54
-24.94;12.74;-2.07;2.50;-8.82;12.85
-45.96;-4.90;-16.66;-2.29;4.79;27.33
-40.29;-17.86;-21.45;0.11;-0.00;19.28
-34.63;-33.98;-34.30;1.74;-3.27;-9.69
-20.91;-33.98;-44.00;-0.65;-3.27;-12.09
-9.69;-31.58;-22.22;-3.16;-18.51;-29.08
-8.82;-47.70;-42.36;-3.92;0.76;-35.50
-6.43;-33.11;-40.84;-4.68;10.45;-25.81
-9.69;-21.89;-44.87;-1.52;8.06;-7.30
-15.25;-20.26;-16.66;-3.16;-7.30;-21.78
-8.06;-16.23;-0.54;-1.52;7.19;6.43
-4.79;4.68;13.18;5.77;5.66;2.40
1.63;7.95;18.08;0.11;5.66;17.64
14.48;23.20;34.96;3.38;-7.30;21.67
18.51;31.25;47.04;3.38;-12.09;25.70
3.27;32.13;45.41;6.53;-8.82;23.30
2.40;31.25;39.75;0.11;-3.27;27.33
12.09;49.88;36.59;3.38;-8.82;1.52
0.87;29.73;25.26;-1.52;-34.63;-18.51
8.06;20.04;15.57;-2.29;-20.91;-26.57
28.97;41.82;-1.31;-1.52;-2.40;-16.12
-7.19;-23.52;-13.39;3.38;10.45;12.85
-7.19;-12.20;-23.85;-3.92;10.45;1.52
-29.84;-21.89;-35.17;-29.73;15.25;-5.66
16.12;-31.58;-42.36;-16.77;15.25;4.03
12.09;-25.92;-45.63;-3.16;16.88;-9.69
-22.54;-37.13;-27.12;1.74;13.72;-33.87
-8.06;-33.98;-31.91;-3.16;-12.09;-55.65
-12.85;-33.11;-27.12;-11.22;-30.60;-68.50
-22.54;-20.26;-14.16;-6.32;-7.30;-50.75
-12.09;-8.17;-18.19;-2.29;5.66;-16.12
5.66;1.52;14.81;3.38;14.48;22.54
7.30;12.74;22.87;-0.65;19.28;27.33
2.40;26.46;31.69;0.11;8.82;42.69
22.54;53.03;44.65;10.56;23.30;41.06
13.72;33.76;45.41;7.41;6.43;29.73
3.27;35.28;42.14;8.93;0.76;35.39
-0.76;30.49;34.09;1.74;-7.30;4.03
-0.76;20.80;24.50;-0.65;-9.69;-10.56
-2.40;16.01;20.47;-2.29;-12.09;29.73
-1.63;5.55;-1.31;37.13;-33.00;4.03
3.27;-2.50;4.36;0.11;-8.82;16.12
3.27;-10.56;-23.85;-2.29;-29.84;-0.87
-5.66;-21.02;-31.15;-2.29;4.79;-23.41
-7.19;-33.11;-54.45;-4.68;10.45;-26.57
-5.66;-38.01;-44.87;-6.32;16.12;-61.31
-17.75;-67.84;-35.17;-3.92;10.45;-21.02
-26.57;-38.01;-39.20;-5.55;9.69;-24.18
-22.54;-22.65;-23.85;-3.92;4.79;-24.18
-12.85;-43.67;-13.39;-2.29;4.79;8.06
-22.54;-8.17;-1.31;-1.52;-2.40;1.52
-22.54;3.92;10.02;0.11;-20.15;-12.09
11.33;5.55;20.47;2.50;-2.40;12.09
28.21;31.25;36.59;6.53;4.79;44.32
50.75;38.55;42.14;6.53;-8.82;21.67
56.41;31.25;30.06;3.38;-15.35;39.42
62.07;44.98;38.11;-20.80;-5.66;40.29
24.94;33.76;24.50;8.17;-0.00;33.76
-39.42;31.25;23.63;6.53;-0.00;27.33
-27.33;23.20;14.05;3.38;-0.87;9.58
-31.36;5.55;-1.31;-1.52;1.63;-9.69
-24.18;-7.41;-15.79;5.77;2.40;-15.35
16.88;-16.23;-24.72;9.80;0.76;-15.35
-19.28;-21.89;-38.33;6.53;2.40;-24.18
-5.66;-38.77;-44.00;-4.68;1.63;-29.08
28.97;-31.58;-44.00;-3.92;8.82;-23.41
-7.19;-20.26;-39.20;-4.68;6.43;-23.41
-14.48;-26.68;-39.20;-1.52;4.79;-2.50
-8.06;-30.71;-31.15;4.90;4.79;-13.72
-4.03;-18.62;-15.03;-29.73;8.82;1.52
0.87;-5.77;-1.31;-0.65;5.66;24.18
2.40;3.92;-1.31;0.11;7.19;26.57
3.27;27.22;23.63;-2.29;5.66;26.57
5.66;23.20;38.99;2.50;5.66;23.30
12.09;31.25;49.44;6.53;-0.00;29.73
11.33;27.22;46.17;8.93;3.16;33.76
21.78;59.46;42.14;4.90;-0.00;34.63
31.47;33.76;39.75;3.38;-10.45;10.45
24.94;30.49;25.26;-32.13;-16.88;-22.54
5.66;20.80;10.78;3.38;-18.51;-52.38
-17.75;9.58;-0.54;0.11;-16.12;-24.18
-35.39;-4.90;-15.03;0.11;-12.09;-16.99
-20.91;-22.65;-19.06;-6.32;-20.91;10.45
-22.54;-25.92;-37.57;-1.52;-16.12;3.16
-20.15;-36.37;-41.60;-11.22;-8.82;1.52
-10.45;-37.13;-39.20;-14.37;-7.30;-31.47
-4.03;-40.40;-35.17;-2.29;6.43;-27.44
3.27;-31.58;-27.88;-2.29;17.75;-34.63
5.66;-28.31;-22.22;-0.65;19.28;-33.11
0.87;-25.05;-9.37;2.50;20.15;-32.23
-4.79;-4.90;-0.54;21.02;12.09;-13.72
-1.63;6.32;12.41;2.50;4.79;-7.30
0.87;10.35;18.84;3.38;6.43;28.21
8.06;28.10;34.96;9.80;4.03;53.14
12.09;33.76;39.75;3.38;-11.33;53.91
14.48;35.28;38.99;-1.52;-15.35;65.23
15.35;65.12;29.29;3.38;3.16;70.89
16.12;34.52;15.57;5.77;-0.87;45.85
24.94;30.49;24.50;-0.65;-4.03;27.33
12.09;-12.96;10.02;-2.29;-2.40;-7.30
4.03;5.55;-3.70;-3.92;-15.35;-37.90
28.97;-1.74;-18.19;1.74;-20.91;-48.35
21.78;-7.41;-21.45;-3.16;-10.45;-55.65
9.69;-18.62;-37.57;-1.52;13.72;-58.04
-24.18;-38.77;-41.60;-6.32;-12.09;-70.13
-58.04;-44.43;-48.02;6.53;4.79;-58.04
-37.90;-37.13;-39.97;-6.32;12.85;-35.50
-23.30;-40.40;-31.91;0.11;15.25;-16.12
-8.82;-27.55;-28.75;-1.52;18.51;-10.56
-8.06;-22.65;-12.63;-5.55;13.72;-6.53
-8.06;-7.41;4.36;-2.29;7.19;1.52
-4.03;-20.26;17.21;3.38;9.69;14.48
-4.03;12.74;24.50;2.50;4.79;22.54
27.44;28.86;33.32;-0.65;4.03;37.79
2.40;34.52;33.32;7.41;2.40;43.45
7.30;31.25;36.59;3.38;-0.00;58.81
23.41;28.86;29.29;0.11;7.19;52.38
27.44;35.28;-1.31;3.38;-5.66;40.29
14.48;24.07;15.57;4.90;-5.66;31.36
8.06;20.80;-1.31;0.11;-4.03;23.30
17.75;7.08;-6.97;-0.65;3.16;25.70
3.27;-2.50;-19.06;5.77;5.66;6.43
-5.66;-17.86;-27.88;-30.49;4.79;-29.84
-1.63;-30.71;-44.00;-2.29;9.69;-36.26
-14.48;-40.40;-57.72;-2.29;12.09;-63.71
-12.09;-40.40;-51.29;19.49;12.85;-28.21
11.33;-35.61;-45.63;-4.68;4.79;-14.48
-1.63;-30.71;-45.63;-3.92;-5.66;-37.13
-12.09;-24.28;-31.91;-2.29;-15.35;-13.72
-36.26;-17.86;-18.19;-2.29;-3.27;-2.50
11.33;-8.17;26.90;1.74;9.69;23.30
17.75;7.95;11.54;0.11;4.79;-1.63
34.63;20.04;20.47;-2.29;-15.35;1.52
-1.63;25.70;34.09;-2.29;-12.09;-2.50
3.27;41.82;35.72;2.50;-20.91;12.09
3.27;14.37;39.75;0.87;4.03;12.85
-1.63;36.15;33.32;3.38;-7.30;11.22
3.27;33.76;38.99;3.38;-12.09;-31.47
10.45;29.73;28.53;-2.29;-6.43;22.54
4.79;20.80;12.41;-10.35;-3.27;19.28
-0.76;5.55;-1.31;-2.29;0.76;12.09
-26.57;-3.38;-10.13;-1.52;3.16;4.03
-22.54;-15.46;-19.06;21.02;4.79;2.40
-43.45;-27.55;-27.88;-4.68;10.45;-14.48
-45.96;-42.04;-39.97;-15.25;18.51;3.16
-8.82;-44.43;-31.91;-3.92;17.75;22.54
-2.40;-40.40;-34.30;-1.52;4.79;10.45
1.63;-66.21;-37.57;-6.32;2.40;-12.96
4.03;-29.08;-23.85;-6.32;9.69;-11.33
54.01;-8.93;-2.07;-0.65;16.88;27.33
78.95;4.68;10.78;0.87;-0.87;-8.93
30.60;15.14;20.47;-1.52;-42.69;-41.16
3.27;20.80;26.90;-0.65;-28.97;-77.43
-8.82;42.58;42.14;21.02;-7.30;-67.74
-8.82;31.25;46.17;10.56;-7.30;-1.63
-7.19;36.15;50.20;4.90;0.76;26.57
-0.76;31.25;17.21;10.56;1.63;32.23
2.40;35.28;38.99;2.50;-0.00;28.21
-4.03;30.49;24.50;21.02;-4.03;25.70
8.82;8.71;17.21;35.61;-0.87;14.48
7.30;5.55;9.15;-1.52;-21.78;6.43
0.87;-7.41;-2.94;-13.61;-0.00;-4.03
-26.57;-14.59;-20.69;-28.10;3.16;-9.69
-18.51;-25.05;-27.12;-2.29;4.79;-18.51
-17.75;-40.40;-39.20;-3.16;4.79;-24.18
-36.26;-44.43;-39.97;-3.92;5.66;-25.05
-44.32;-36.37;-35.17;-4.68;5.66;-24.18
-47.48;-42.04;-48.02;-2.29;4.79;-7.30
-9.69;-20.26;-23.85;2.50;17.75;27.33
8.82;-14.59;-6.10;-3.92;17.75;47.48
-20.91;-4.90;1.09;0.11;9.69;53.14
49.99;5.55;12.41;0.11;8.82;20.15
82.22;10.35;17.21;6.53;4.03;-5.66
62.84;24.07;37.35;8.93;1.63;-15.35
41.06;33.76;46.17;6.53;3.16;-18.51
3.27;40.18;40.62;5.77;-0.87;13.61
-1.63;43.34;40.62;-3.92;-4.03;15.25
-29.84;31.25;39.75;6.53;-20.91;-14.48
-26.57;30.49;24.50;6.53;-16.12;34.63
-22.54;17.64;11.54;-1.52;-5.66;21.67
-4.03;9.58;0.33;-3.16;-9.69;-3.27
0.87;-8.17;-15.03;-2.29;-16.12;-14.48
-0.76;-13.83;-19.82;-2.29;-6.43;1.52
-22.54;-29.08;-35.17;-3.16;-0.87;-15.35
-15.25;-62.94;-44.00;-7.95;4.79;-29.84
7.30;-44.43;-44.00;-15.25;7.19;-33.11
-9.69;-45.19;-31.91;-4.68;9.69;-31.47
-9.69;-42.04;-35.17;-6.32;7.19;-9.69
-4.03;-16.23;-27.12;-3.16;4.79;-3.27
-10.45;-21.02;-13.39;21.02;-0.00;-19.38
-0.76;-8.17;1.09;-2.29;0.76;-25.05
-4.03;3.05;15.57;4.90;-4.90;-20.15
4.03;18.40;26.14;-1.52;4.79;-0.87
8.06;32.13;38.99;1.74;3.16;18.51
8.06;42.58;44.65;6.53;-3.27;27.33
5.66;41.82;40.62;32.34;-20.15;41.06
12.85;43.34;45.41;-16.01;-6.43;28.97
11.33;43.34;31.69;0.11;-8.82;20.91
7.30;31.25;22.87;5.77;-10.45;16.12
4.79;18.40;12.41;8.93;0.76;12.85
8.06;7.08;-1.31;1.74;-8.82;12.85
12.09;-6.53;-11.76;6.53;9.69;16.12
13.72;-11.43;-25.48;2.50;7.19;16.12
10.45;-28.31;-37.57;-32.89;13.72;27.33
-1.63;-41.16;-40.84;-2.29;4.79;17.64
-49.11;-45.19;-44.00;-4.68;8.82;1.52
-40.29;-48.46;-40.84;-31.25;4.79;-24.18
-45.96;-46.06;-60.11;-2.29;4.79;-18.51
-43.45;-60.55;-27.12;-0.65;9.69;-34.63
-24.94;-20.26;-1.31;-1.52;-7.30;-82.98
3.27;-6.53;-0.54;-3.16;-11.33;-50.75
71.77;5.55;14.05;3.38;-20.91;-25.05
91.04;20.80;13.18;-0.65;-8.06;-60.44
28.97;28.86;37.35;8.17;-5.66;-36.26
15.35;9.58;39.75;6.53;-5.66;15.25
7.30;38.55;35.72;2.50;-16.88;22.54
5.66;40.18;33.32;4.90;-3.27;39.42
8.82;44.21;32.56;8.93;-3.27;45.08
-17.75;31.25;22.87;7.41;-0.00;61.96
-26.57;19.17;11.54;-0.65;-2.40;23.30
-20.15;4.68;-1.31;-2.29;0.76;12.85
-20.91;-8.93;-15.03;-2.29;2.40;2.40
-20.15;-18.62;-27.88;-13.61;0.76;-16.12
-8.82;-33.11;-39.97;-15.25;3.16;-15.35
-10.45;-34.74;-41.60;-6.32;4.79;-15.35
-7.19;-35.61;-39.20;-6.32;4.79;1.52
-2.40;-40.40;-64.90;-7.19;14.48;8.06
-8.06;-37.13;-27.88;-3.16;19.28;-6.53
-7.19;-50.86;-21.45;-3.16;19.28;-7.30
-0.76;-20.26;-10.13;-2.29;18.51;-4.90
-6.43;-8.17;6.75;-1.52;46.72;-0.00
-4.03;5.55;13.18;3.38;5.66;-15.35
-1.63;11.11;24.50;-16.77;4.79;1.52
-5.66;25.70;31.69;-2.29;-3.27;4.03
0.87;20.80;38.11;-7.19;-18.51;44.32
16.12;43.34;38.11;5.77;-20.91;55.54
29.84;40.18;36.59;8.17;-5.66;26.57
27.44;34.52;30.06;8.93;-8.06;-24.18
16.12;30.49;22.87;-2.29;-7.30;5.55
15.35;8.71;9.15;4.90;-23.41;-28.21
20.15;1.52;-2.94;0.11;-33.87;-52.38
-6.43;-19.49;-16.66;-28.10;-22.54;-41.16
-20.91;-18.62;-23.85;-3.16;-5.66;-49.99
-22.54;-28.31;-39.97;-3.16;4.79;-50.75
-23.30;-38.01;-39.20;-5.55;16.12;-25.81
-33.00;-46.06;-44.00;-2.29;16.88;-9.69
-27.33;-44.43;-39.97;-1.52;17.75;-9.69
-20.15;-43.67;-31.91;20.26;15.25;6.43
12.09;-33.11;-23.09;-3.16;19.28;10.45
33.87;-17.86;-5.34;16.23;16.88;12.85
24.18;-7.41;7.51;-0.65;41.06;25.70
17.75;7.08;14.81;1.74;17.75;31.36
2.40;14.37;24.50;5.77;28.97;33.00
-12.09;28.86;38.11;5.77;4.79;41.82
-6.43;41.82;45.41;5.77;-10.45;49.11
0.00;43.34;39.75;0.11;-21.78;68.50
3.27;34.52;37.35;3.38;-19.38;39.42
7.30;32.13;33.32;0.11;-9.69;0.76
16.12;30.49;22.87;2.50;-5.66;-0.00
21.78;16.01;9.15;0.11;-3.27;-10.56
21.78;3.92;-5.34;-1.52;-3.27;-12.09
3.27;-5.77;-13.39;0.11;-0.00;-18.51
7.30;-11.43;-21.45;3.38;-2.40;-31.47
11.33;-28.31;-31.15;-4.68;8.82;-10.56
-1.63;-43.67;-37.57;-2.29;4.79;9.58
-8.82;-38.01;-35.94;-24.07;10.45;10.45
8.82;-33.98;-29.51;-6.32;10.45;5.55
20.15;-40.40;-27.88;-3.16;12.85;-18.51
3.27;-27.55;-10.13;10.56;12.85;-18.51
-10.45;-19.49;-1.31;5.77;-13.72;-29.08
-49.11;-2.50;15.57;-2.29;-9.69;-80.59
-51.51;3.92;10.78;-0.65;-20.91;-45.96
-34.63;11.11;26.90;-3.92;-4.03;16.88
-14.48;23.20;44.65;0.87;-7.30;27.33
12.09;32.13;59.89;1.74;-6.43;16.88
24.94;48.24;41.38;1.74;4.79;18.51
20.15;35.28;24.50;-0.65;3.16;25.70
12.09;36.92;27.66;4.90;4.03;28.97
3.27;28.86;16.44;4.90;-2.40;27.33
1.63;13.61;1.09;3.38;3.16;27.33
-2.40;5.55;-8.60;2.50;-2.40;7.19
0.87;-6.53;-11.00;7.41;0.76;-0.87
3.27;-18.62;-25.48;-3.16;-16.88;-24.18
4.03;-34.74;-39.20;-4.68;-13.72;-38.66
-1.63;-44.43;-40.84;-3.16;-3.27;-25.81
-12.85;-42.80;-44.00;-7.95;4.03;-13.72
-17.75;-42.80;-34.30;-3.16;10.45;-8.93
20.91;-40.40;-32.78;0.87;16.12;-9.69
2.40;-27.55;-19.06;10.56;18.51;10.45
3.27;-18.62;-15.03;-3.16;16.88;33.00
3.27;-3.38;4.36;6.53;-20.91;11.22
4.03;5.55;15.57;-2.29;-2.40;27.33
3.27;13.61;24.50;-1.52;-7.30;47.48
4.79;31.25;37.35;9.80;-8.06;-24.18
3.27;44.21;42.14;6.53;-8.82;-34.63
4.79;40.18;48.68;3.38;3.16;-49.99
4.03;32.13;42.14;17.86;4.79;-29.08
-22.54;32.13;31.69;4.90;-29.84;1.52
3.27;24.07;25.26;12.96;-2.40;27.33
-15.25;29.73;12.41;-11.22;3.16;16.88
1.63;14.37;-1.31;1.74;3.16;12.09
-8.82;-12.20;-15.79;1.74;-11.33;17.64
-4.79;-20.26;-21.45;-0.65;7.19;8.82
-2.40;-25.05;-39.20;-3.16;16.12;7.19
-5.66;-40.40;-44.87;0.87;13.72;-0.87
-10.45;-42.04;-44.00;-1.52;16.88;3.16
27.44;-38.01;-56.95;-4.68;5.66;-5.66
28.97;-43.67;-56.95;-15.25;-9.69;-19.38
13.72;-29.08;-26.24;-3.16;-4.03;-42.69
5.66;-21.89;-6.97;-12.74;3.16;-54.78
-62.07;0.65;-1.31;1.74;-13.72;-13.72
-50.75;-6.53;16.44;0.11;-15.35;1.52
-24.94;15.14;24.50;5.77;2.40;11.22
-52.38;18.40;34.09;3.38;-5.66;7.19
-17.75;39.31;39.75;0.11;-8.82;20.91
29.84;39.31;30.06;0.11;-31.47;24.94
66.86;33.76;30.93;1.74;-0.00;31.36
31.47;57.06;26.90;7.41;-1.63;29.73
21.78;18.40;1.09;3.38;-0.87;1.52
10.45;7.08;6.75;1.74;-0.00;27.33
5.66;-8.17;-9.37;-0.65;4.79;39.42
4.79;-16.23;-15.79;0.87;7.19;24.18
3.27;-4.90;-26.24;-2.29;9.69;-16.99
1.63;-46.06;-21.45;-9.58;8.06;-21.02
-7.19;-58.91;-48.02;18.62;10.45;-44.32
15.35;-58.91;-41.60;-1.52;19.28;-70.89
-8.82;-46.06;-40.84;-4.68;-5.66;-97.57
-7.19;-51.73;-35.94;-6.32;-9.69;-62.84
-4.79;-60.55;3.48;-5.55;-12.09;-2.50
-1.63;-42.04;-2.94;-4.68;-11.33;3.16
-8.82;-9.80;6.75;-2.29;-10.45;35.39
1.63;14.37;17.21;-15.25;-11.33;45.08
4.79;33.76;30.06;0.87;2.40;13.61
3.27;49.88;42.14;-11.22;4.79;12.09
-2.40;65.12;47.04;3.38;-11.33;-41.16
-10.45;65.12;46.17;10.56;-13.72;-41.16
-14.48;58.70;43.02;1.74;-8.06;-22.54
-4.79;65.99;38.99;10.56;-6.43;-5.66
-36.26;46.61;25.26;3.38;-4.03;15.25
-37.90;27.22;10.78;-3.92;2.40;23.30
3.27;-5.77;-5.34;0.11;4.79;-3.27
45.96;-9.80;-15.79;-0.65;4.03;12.85
52.38;-29.08;-27.88;0.11;4.79;2.40
24.18;-56.52;-40.84;1.74;4.03;-34.63
28.97;-79.93;-56.08;0.11;-0.00;-23.41
8.82;-79.06;-54.45;-6.32;-10.45;-16.12
-33.87;-61.31;-15.03;-3.92;-0.00;6.43
-18.51;-43.67;-36.81;-1.52;8.82;25.70
-37.90;-27.55;-27.12;-7.95;12.09;27.33
-4.79;-12.20;-10.13;-0.65;23.30;31.36
3.27;13.61;-2.07;-7.19;9.69;4.03
-4.03;17.64;-3.70;-1.52;21.78;-29.84
10.45;17.64;10.78;0.11;7.19;-54.01
15.35;33.76;27.66;3.38;4.79;-29.08
41.93;61.09;30.06;8.93;3.16;2.40
5.66;70.78;32.56;11.43;2.40;27.33
28.97;66.76;30.06;4.90;3.16;35.39
-1.63;59.46;30.06;2.50;-2.40;42.69
-12.85;56.30;20.47;-3.16;-8.06;27.33
-21.78;31.25;11.54;2.50;-20.15;16.88
-18.51;7.08;-8.60;-0.65;-20.15;2.40
-18.51;-12.96;-10.13;-1.52;-9.69;-8.93
-13.72;-21.02;-21.45;-3.92;-5.66;-28.21
-8.82;-34.74;-39.20;-6.32;-7.30;-29.84
-7.19;-48.46;-40.84;-4.68;4.03;-26.57
-13.72;-50.09;-31.15;10.56;0.76;-24.18
0.87;-50.86;-30.27;-3.92;12.85;-18.51
4.03;-50.86;-25.48;-2.29;12.85;-12.96
3.27;-41.16;-10.13;-1.52;9.69;-3.27
3.27;-33.11;-1.31;6.53;12.85;1.52
2.40;-9.80;11.54;3.38;8.82;13.61
4.03;5.55;22.87;0.11;4.79;12.09
4.03;16.01;36.59;9.80;-2.40;21.67
3.27;36.92;50.20;-3.16;-7.30;27.33
7.30;53.03;52.71;36.37;-17.75;22.54
2.40;59.46;50.20;-2.29;-12.09;27.33
3.27;53.91;19.60;1.74;0.76;28.21
4.79;57.06;52.71;2.50;5.66;16.12
16.88;43.34;21.24;-0.65;4.03;28.97
8.06;32.13;7.51;38.77;4.79;34.63
5.66;3.92;-13.39;-28.86;4.79;55.54
3.27;-7.41;-26.24;-0.65;4.79;58.81
-6.43;-17.86;-48.90;0.87;-16.88;-37.90
-15.25;-38.01;-43.23;-2.29;-23.41;-60.44
-8.82;-54.89;-52.93;2.50;-5.66;-16.12
5.66;-53.25;-45.63;-8.71;4.03;-101.60
29.84;-50.09;-31.15;-5.55;5.66;-87.01
24.94;-75.90;-38.33;-11.22;10.45;-44.32
3.27;-37.13;-23.09;-2.29;4.03;-34.63
-43.45;-30.71;-11.76;-3.92;2.40;-36.26
-72.53;-7.41;5.99;-1.52;-12.85;-74.92
-59.57;-21.02;17.21;31.58;-19.38;-78.19
-39.42;7.95;13.18;-3.16;-6.43;3.16
-22.54;41.82;32.56;0.11;-20.91;45.85
3.27;51.40;46.17;1.74;0.76;16.88
15.35;53.03;38.99;4.14;4.79;22.54
15.35;57.06;51.07;8.17;-2.40;22.54
28.97;31.25;33.32;1.74;-11.33;23.30
61.20;44.21;24.50;0.11;-6.43;63.60
63.71;32.13;12.41;0.11;-12.09;26.57
24.94;11.11;-11.76;3.38;-3.27;14.48
-31.36;-4.90;-26.24;-2.29;2.40;9.58
-14.48;-20.26;-31.15;27.55;4.79;5.55
-20.91;-46.06;-45.63;-3.16;4.79;-5.66
-23.30;-46.83;-52.05;-1.52;24.94;4.03
10.45;-58.91;-44.87;15.46;6.43;16.12
-22.54;-51.73;-44.00;-3.92;8.06;1.52
-20.91;-79.06;-38.33;-3.16;10.45;-24.18
-11.22;-38.01;-23.09;-2.29;9.69;-25.05
24.94;-17.86;4.36;-3.92;5.66;-16.12
-20.15;-3.38;1.96;-0.65;4.79;-10.56
-22.54;9.58;14.05;0.11;5.66;-24.18
-24.94;14.37;32.56;1.74;5.66;-8.06
-15.25;41.82;50.20;0.11;2.40;21.67
33.87;71.55;60.77;0.11;0.76;44.32
106.40;70.78;55.87;5.77;-0.87;53.91
82.22;61.09;50.20;8.93;0.76;80.48
66.10;57.06;58.26;6.53;-21.78;28.21
65.23;42.58;29.29;4.14;-33.87;9.58
0.87;32.13;14.05;-2.29;-20.91;-7.30
-41.06;6.32;-1.31;1.74;-4.03;-15.35
-53.14;-7.41;-13.39;3.38;-0.00;-24.18
-62.07;-21.89;-9.37;-0.65;7.19;-16.12
-44.32;-46.83;-37.57;-3.16;4.79;-29.84
-43.45;-66.21;-49.66;-7.19;4.79;-26.57
-28.21;-58.91;-42.36;-7.19;10.45;-22.54
-8.82;-48.46;-37.57;0.87;13.72;-19.38
-12.09;-47.70;-35.94;0.11;16.88;-2.50
-4.79;-38.77;-26.24;13.83;17.75;4.79
0.87;-18.62;-9.37;1.74;20.15;14.48
10.45;-3.38;11.54;-2.29;18.51;18.51
5.66;17.64;20.47;-13.61;8.82;34.63
16.12;6.32;30.06;-0.65;5.66;24.18
41.93;36.92;51.84;-1.52;10.45;57.17
54.78;60.33;55.87;4.90;-0.87;91.04
41.93;67.52;50.20;2.50;-10.45;67.63
16.12;69.15;50.20;-2.29;-19.38;8.82
-37.03;54.67;39.75;0.11;-19.38;-60.44
-55.54;64.36;24.50;-0.65;-12.85;-61.31
-10.45;7.95;9.15;-6.32;-15.35;-38.66
-18.51;3.05;-6.97;5.77;-25.81;-25.05
-1.63;-24.28;-25.48;-3.16;-33.87;-66.86
12.09;-18.62;-35.94;-3.92;-20.91;-54.78
16.12;-40.40;-47.26;-2.29;4.03;-50.75
-2.40;-53.25;-52.93;-1.52;4.03;-88.64
-4.03;-58.91;-52.05;3.38;-7.30;-52.38
3.27;-60.55;-52.05;-3.92;-0.87;-49.22
11.33;-50.09;-52.93;-0.65;37.90;-10.56
-0.76;-32.34;-41.60;1.74;13.72;6.43
-29.84;-42.80;-25.48;-1.52;14.48;4.03
-4.79;-3.38;-0.54;3.38;14.48;37.79
4.79;30.49;13.18;0.87;10.45;54.78
-1.63;26.46;19.60;1.74;10.45;42.69
3.27;47.37;44.65;-9.58;8.06;53.91
10.45;58.70;50.20;16.23;18.51;57.93
8.06;57.93;45.41;4.90;-7.30;47.48
3.27;56.30;43.02;8.93;6.43;29.73
3.27;49.00;30.06;9.80;1.63;27.33
5.66;32.89;35.72;8.17;-0.00;36.26
7.30;20.04;7.51;-2.29;-7.30;12.09
2.40;-1.74;-3.70;-0.65;-16.88;-16.12
-8.82;-21.02;-23.85;24.28;-36.26;-21.78
-20.15;-37.13;-39.20;-6.32;-16.88;-44.32
-10.45;-56.52;-52.05;-3.92;4.79;-55.65
-9.69;-63.82;-54.45;-2.29;4.79;-58.81
-7.19;-70.24;-34.30;1.74;4.79;-62.84
-2.40;-58.91;-48.90;-7.95;20.15;-25.05
-1.63;-58.15;-48.02;0.87;13.72;-26.57
4.03;-50.09;-35.94;-3.16;15.25;-12.09
-5.66;-33.11;-16.66;-2.29;4.79;-24.18
-5.66;-12.96;-1.31;-3.16;4.79;-2.50
-10.45;12.74;14.05;4.90;4.79;26.57
2.40;28.86;34.96;10.56;4.79;16.88
25.81;51.40;52.71;12.20;-3.27;20.91
24.94;65.12;68.82;4.90;-3.27;61.20
11.33;69.15;67.19;9.80;-3.27;53.14
11.33;59.46;58.26;5.77;-16.12;41.82
16.12;57.93;52.71;9.80;-6.43;27.33
3.27;81.24;34.96;-25.70;-13.72;19.28
-7.19;29.73;26.90;0.11;-17.75;1.52
-45.96;31.25;-2.07;-10.35;-3.27;-7.30
-44.32;-16.99;-23.09;-1.52;-9.69;-24.18
-35.39;-21.02;-42.36;-3.92;1.63;-34.63
13.72;-46.06;-64.90;-11.22;4.79;-25.81
54.01;-50.86;-78.63;-4.68;15.25;-11.33
30.60;-54.89;-70.57;-33.76;8.82;-12.09
1.63;-58.91;-65.78;-5.55;19.28;-20.15
3.27;-51.73;-75.47;2.50;26.57;-0.87
8.06;-36.37;-41.60;-1.52;25.81;-19.38
-48.35;-21.02;-26.24;-3.16;19.28;-10.56
-23.30;-22.65;0.33;-0.65;7.19;-17.75
-8.82;6.32;15.57;-3.16;7.19;2.40
28.97;27.22;19.60;5.77;8.82;53.14
26.57;52.27;23.63;0.11;-24.18;1.52
4.03;61.09;24.50;2.50;-33.87;-31.47
3.27;61.09;38.11;6.53;-17.75;5.55
4.79;57.06;61.53;-2.29;-21.78;-8.93
36.26;58.70;14.81;2.50;-9.69;0.76
53.14;40.95;24.50;7.41;2.40;40.29
17.75;22.43;-1.31;2.50;4.79;53.91
-22.54;-6.53;-1.31;6.53;5.66;53.14
-47.48;-21.02;-22.22;5.77;4.79;25.70
-78.19;-42.04;-32.78;-13.61;-3.27;-54.01
-58.81;-66.97;-56.95;-1.52;4.03;-36.26
-51.51;-79.06;-50.42;-4.68;4.79;-58.04
-17.75;-97.57;-51.29;3.38;7.19;-18.51
31.47;-47.70;-48.02;-1.52;15.25;76.45
26.57;-58.91;-39.97;-0.65;-9.69;-34.63
10.45;-50.09;-27.12;-2.29;-16.88;-62.84
3.27;-29.95;0.33;-2.29;6.43;-14.48
6.43;-17.86;3.48;-2.29;19.28;-24.18
-26.57;5.55;26.90;0.11;8.82;-79.82
-39.42;10.35;41.38;0.11;12.09;-65.34
4.03;35.28;67.95;8.17;1.63;13.61
11.33;53.03;76.01;3.38;-2.40;81.35
31.47;57.06;65.56;6.53;3.16;70.02
43.56;42.58;55.10;4.90;-4.03;12.09
28.97;40.18;37.35;-1.52;9.69;8.82
24.94;40.18;15.57;5.77;4.79;3.16
12.09;24.07;-3.70;0.11;4.79;2.40
3.27;3.05;-27.12;-30.49;3.16;46.72
4.03;-27.55;-40.84;-0.65;4.79;61.96
5.66;-48.46;-52.05;-1.52;-0.00;28.21
-11.22;-71.00;-72.96;-3.16;-6.43;-24.18
-30.60;-95.94;-83.53;-6.32;-15.35;-47.59
-13.72;-95.94;-67.41;-1.52;-7.30;-32.23
28.97;-95.94;-58.48;0.11;0.76;-57.28
24.94;-79.06;-47.26;0.11;-0.87;-54.78
14.48;-62.94;-30.27;-5.55;-0.00;-31.47
-2.40;-50.86;-35.94;-1.52;4.79;-25.05
-21.78;-35.61;-27.12;-3.16;4.79;-29.84
-47.48;26.46;-6.97;-0.65;4.79;3.16
-42.69;-2.50;6.75;3.38;2.40;28.21
-10.45;20.04;41.38;3.38;4.03;50.75
24.94;32.89;51.84;8.93;3.16;53.14
39.53;24.07;51.07;5.77;4.03;38.66
20.15;25.70;34.96;2.50;-8.06;8.82
3.27;20.80;50.20;11.43;-4.03;4.03
-55.54;18.40;21.24;2.50;1.63;28.97
-17.75;-3.38;16.44;1.74;-4.03;12.09
3.27;-29.08;-8.60;0.87;-8.82;-5.66
50.75;-62.94;-21.45;-3.92;-30.60;4.03
62.84;-71.87;-27.88;-1.52;0.76;12.09
28.97;-102.47;-54.45;-2.29;0.76;-12.09
-59.57;-110.53;-60.98;-2.29;-12.09;-59.68
-84.62;-106.50;-53.69;-2.29;-7.30;-32.23
-39.42;-101.60;-61.75;15.46;-12.85;-22.54
-56.41;-109.66;-53.69;-2.29;-5.66;-33.11
-31.36;-76.67;-35.94;1.74;12.09;28.97
0.87;-48.46;-12.63;-27.22;19.28;53.91
-0.76;-20.26;30.06;0.87;16.12;40.29
15.35;3.05;24.50;3.38;4.03;7.19
18.51;30.49;28.53;2.50;7.19;0.76
12.85;55.43;50.20;8.17;12.85;-9.69
11.33;62.73;54.23;9.80;6.43;-15.35
13.72;72.42;34.96;2.50;-6.43;-31.47
15.35;61.09;14.05;2.50;-5.66;28.97
15.35;61.09;20.47;4.90;-4.03;16.12
29.84;44.21;-16.66;11.43;-7.30;24.94
18.51;29.73;-34.30;-0.65;-0.87;2.40
3.27;3.05;-42.36;-2.29;-10.45;3.16
-13.72;-29.95;-62.51;1.74;-5.66;18.51
-22.54;-44.43;-70.57;-1.52;2.40;7.19
-22.54;-72.64;-87.56;-2.29;0.76;-22.54
-20.15;-88.75;-85.05;-5.55;4.79;-57.28
-7.19;-84.72;-78.63;-3.16;-32.23;-24.18
0.87;-76.67;-65.78;28.31;10.45;3.16
5.66;-88.75;-79.50;-6.32;17.75;-49.99
16.12;-76.67;-38.33;-2.29;4.03;-37.90
41.06;-40.40;-10.13;-1.52;5.66;-16.12
5.66;-25.92;10.78;1.74;7.19;-18.51
-10.45;-11.43;24.50;25.05;2.40;-33.11
-4.79;3.92;41.38;2.50;-0.00;-37.13
3.27;30.49;66.32;0.87;0.76;-19.38
12.85;41.82;80.04;0.11;2.40;33.00
9.69;38.55;70.35;2.50;1.63;50.75
4.03;23.20;63.92;2.50;5.66;71.66
12.09;30.49;59.13;3.38;2.40;79.71
-20.91;31.25;41.38;21.89;4.03;78.95
0.87;-15.46;26.90;1.74;10.45;49.11
-12.09;-43.67;7.51;-3.16;-9.69;-19.38
-12.09;-66.21;-5.34;0.11;-0.87;-22.54
-12.85;-84.72;-22.22;-3.16;33.00;-0.00
3.27;-117.72;-25.48;-3.16;9.69;-37.13
21.78;-125.02;-47.26;-18.40;16.88;-45.19
6.43;-120.99;-48.90;-3.92;25.81;-55.65
-10.45;-101.60;-48.02;-2.29;17.75;-83.85
74.92;-75.03;-40.84;-3.92;15.25;-82.98
16.12;-83.96;-25.48;-6.32;-8.82;-81.46
17.75;-50.09;2.72;-7.19;-41.06;-45.19
-12.85;-19.49;25.26;-0.65;-46.72;14.48
-87.01;5.55;31.69;-2.29;-44.32;12.09
-48.35;10.35;46.17;2.50;-37.03;-10.56
-42.69;31.25;71.22;-0.65;-2.40;43.45
-25.81;61.09;84.94;3.38;6.43;55.54
5.66;33.76;86.47;23.52;8.82;45.85
16.88;69.15;80.04;2.50;13.72;28.97
17.75;67.52;65.56;5.77;9.69;34.63
3.27;44.98;48.68;4.14;4.79;21.67
-23.30;30.49;23.63;0.11;4.79;2.40
-13.72;4.68;-2.94;-2.29;4.03;-3.27
-11.22;-14.59;-23.09;-4.68;30.60;-0.00
2.40;-30.71;-27.12;-2.29;1.63;-11.33
42.69;-58.15;-42.36;-3.16;9.69;-9.69
100.73;-66.97;-63.38;-3.92;9.69;-1.63
33.00;-64.58;-61.75;-10.35;3.16;-8.93
19.38;-60.55;-55.32;10.56;10.45;-24.18
0.87;-62.18;-60.98;-2.29;9.69;-19.38
-12.09;-35.61;-35.17;0.87;4.79;-11.33
-39.42;-16.23;-16.66;-28.86;5.66;-2.50
-43.45;5.55;11.54;1.74;8.06;7.19
-22.54;61.09;24.50;4.90;8.82;5.55
-12.09;55.43;29.29;10.56;4.03;1.52
-8.06;78.84;52.71;3.38;4.03;4.03
15.35;92.56;63.16;3.38;-0.00;25.70
49.99;103.78;55.10;21.02;16.88;49.88
28.97;98.12;54.23;5.77;-10.45;51.51
18.51;85.27;50.20;7.41;-15.35;28.21
-4.03;58.70;26.14;40.40;-5.66;20.15
-2.40;35.28;5.12;-2.29;-3.27;22.54
-5.66;10.35;-15.03;3.38;-2.40;27.33
-8.06;-22.65;-31.15;-2.29;-11.33;-37.90
-11.22;-38.77;-39.97;-2.29;-12.09;-50.75
-18.51;-69.37;-62.51;-4.68;-3.27;-40.29
29.84;-86.36;-64.90;-4.68;-0.00;-62.84
41.93;-85.49;-61.75;-7.19;2.40;-84.62
28.21;-74.27;-52.05;-22.43;4.79;-84.62
-20.15;-77.43;-40.84;-6.32;8.82;-29.84
-62.84;-80.69;-27.12;-3.16;10.45;34.63
-43.45;-26.68;-1.31;-28.10;6.43;53.14
-45.96;5.55;24.50;0.11;6.43;41.82
-60.44;27.22;46.17;4.90;4.79;17.64
-20.91;48.24;58.26;-13.61;4.03;1.52
-9.69;80.48;78.41;6.53;-0.87;12.09
10.45;93.33;78.41;8.93;-8.06;13.61
60.44;67.52;72.85;33.98;-3.27;22.54
60.44;67.52;63.16;4.90;-8.06;10.45
36.26;85.27;62.29;4.90;-8.82;31.36
55.65;67.52;39.75;3.38;0.76;41.06
24.94;7.95;17.21;8.17;4.03;42.69
-9.69;-12.96;-9.37;-1.52;5.66;46.72
-33.00;-12.96;-23.09;4.90;4.79;-12.96
-33.87;-27.55;-31.91;-3.16;4.03;-50.75
-23.30;-62.94;-54.45;-9.58;-20.91;-107.16
-27.33;-75.90;-64.14;-18.40;-20.91;-79.82
-18.51;-75.90;-81.02;-12.74;0.76;-55.65
11.33;-62.94;-56.08;-6.32;5.66;-12.96
17.75;-50.09;-50.42;-3.92;8.82;2.40
17.75;-38.77;-48.02;-2.29;2.40;-2.50
2.40;-7.41;-6.10;0.11;10.45;10.45
-29.84;2.29;18.84;-0.65;14.48;7.19
-47.48;44.21;32.56;3.38;5.66;3.16
-15.25;61.09;36.59;1.74;-5.66;0.76
-14.48;102.15;67.19;5.77;-21.78;4.03
0.87;121.53;71.98;0.87;-0.87;41.82
3.27;119.14;68.82;8.17;-5.66;16.12
8.06;106.18;63.16;-2.29;-9.69;16.88
-0.76;105.42;50.20;1.74;1.63;41.06
-11.22;82.11;38.11;5.77;5.66;58.81
16.12;44.21;9.15;2.50;5.66;58.81
25.81;14.37;-6.10;0.87;-5.66;27.33
13.72;-19.49;-24.72;-2.29;-21.78;-24.18
0.87;-33.11;-38.33;-5.55;-10.45;-70.89
-12.09;-49.22;-56.95;-6.32;3.16;-86.25
-19.28;-76.67;-63.38;16.23;4.03;-75.79
-16.88;-81.46;-59.35;-1.52;4.79;-62.84
-37.03;-109.66;-63.38;-4.68;4.79;-10.56
-29.84;-76.67;-56.95;10.56;15.25;10.45
23.41;-46.06;-31.91;-0.65;10.45;16.88
54.01;-17.86;-9.37;8.93;0.76;15.25
4.79;5.55;10.78;3.38;5.66;7.19
7.30;47.37;29.29;-0.65;4.79;1.52
15.35;68.39;37.35;5.77;4.79;10.45
2.40;95.72;60.77;3.38;-8.06;-24.18
-11.22;108.68;76.01;-1.52;-20.91;16.12
-8.82;90.93;64.80;0.11;-15.35;48.35
-7.19;91.69;49.44;5.77;-5.66;16.88
3.27;77.21;50.20;-27.22;4.79;24.18
-16.88;41.82;29.29;6.53;5.66;23.30
-11.22;8.71;11.54;0.11;4.79;52.38
28.97;-17.86;-5.34;6.53;4.79;53.91
0.87;-38.01;-21.45;0.87;4.79;32.23
16.12;-54.89;-35.94;8.17;4.79;-0.00
8.82;-87.12;-60.98;-4.68;-0.00;-49.99
1.63;-119.35;-60.11;-3.16;0.76;-110.42
-2.40;-88.75;-57.72;-3.16;0.76;-114.45
-11.22;-86.36;-52.05;-1.52;-8.06;-110.42
-9.69;-71.00;-60.11;-2.29;4.03;-50.75
-22.54;-43.67;-26.24;-7.19;13.72;-5.66
-21.78;-20.26;-27.12;0.11;-2.40;40.29
-15.25;16.01;20.47;2.50;13.72;64.47
8.06;57.06;26.90;28.31;5.66;74.05
-4.03;66.76;33.32;3.38;0.76;84.51
-0.76;101.39;76.01;-2.29;4.79;61.96
4.79;112.71;80.91;1.74;7.19;49.11
15.35;107.05;73.62;2.50;-5.66;-45.96
-8.06;97.36;64.80;3.38;-16.12;-57.28
21.78;94.96;55.10;1.74;-8.82;-29.08
15.35;74.05;39.75;4.90;21.78;-9.69
12.09;40.95;20.47;-2.29;-14.48;1.52
42.69;-6.53;-2.07;-2.29;3.16;24.94
31.47;-24.28;-26.24;0.11;10.45;18.51
15.35;-54.89;-44.00;-27.22;5.66;7.19
-31.36;-85.49;-64.14;0.11;6.43;-25.05
-120.01;-94.42;-69.80;-6.32;-6.43;-54.78
-47.48;-79.06;-89.08;1.74;-20.91;-74.92
-34.63;-80.69;-62.51;-2.29;-13.72;-41.16
-40.29;-82.33;-52.05;-3.92;-12.09;-29.84
-6.43;-50.09;-31.91;-3.92;-19.38;10.45
4.03;-15.46;-11.76;-3.16;8.82;18.51
3.27;4.68;14.05;-2.29;15.25;33.00
3.27;40.18;27.66;-4.68;13.72;2.40
28.97;57.06;46.17;1.74;5.66;31.36
68.50;109.44;67.19;2.50;-2.40;33.00
84.62;130.35;75.25;5.77;4.79;29.73
41.06;140.92;75.25;6.53;0.76;28.21
-8.82;142.44;63.16;5.77;12.85;40.29
-58.04;123.93;53.47;6.53;4.79;37.79
-37.03;82.11;28.53;0.11;4.79;27.33
-53.14;53.91;-0.54;6.53;1.63;3.16
-16.88;31.25;-15.79;-4.68;-3.27;-29.08
16.12;-16.99;-34.30;1.74;-0.87;-29.08
10.45;-36.37;-51.29;-5.55;-6.43;-75.79
-8.06;-81.46;-72.96;-6.32;-21.78;-28.21
-20.15;-109.66;-79.50;-7.95;-20.91;-33.11
-71.66;-119.35;-70.57;-3.92;-9.69;10.45
-4.03;-106.50;-64.90;-3.92;-28.97;2.40
43.56;-92.02;-54.45;-10.35;-15.35;-10.56
1.63;-63.82;-39.97;-3.16;5.66;-24.18
-6.43;-33.98;-15.79;-2.29;8.82;-29.08
-14.48;7.08;9.15;-1.52;10.45;-28.21
-22.54;36.15;24.50;-3.16;4.03;-45.96
-4.03;49.88;41.38;-2.29;-7.30;19.28
40.29;86.14;62.29;0.11;-2.40;65.99
20.91;103.02;77.65;4.90;-0.87;48.35
-0.76;111.08;74.38;-2.29;1.63;19.28
5.66;94.09;76.01;8.17;2.40;42.69
4.79;88.54;66.32;10.56;7.19;40.29
1.63;58.70;50.20;8.93;3.16;1.52
28.21;25.70;24.50;10.56;-6.43;-24.18
33.00;11.11;-3.70;5.77;-2.40;-15.35
3.27;-25.05;-23.85;-0.65;-6.43;2.40
-19.28;-56.52;-40.84;-2.29;2.40;-6.53
-30.60;-87.12;-66.54;-2.29;-2.40;-23.41
-16.88;-108.90;-71.44;-3.92;-0.00;-42.69
-8.82;-125.78;-68.17;-3.92;4.03;-24.18
3.27;-98.45;-67.41;0.11;1.63;-62.07
11.33;-83.09;-55.32;-7.19;-8.82;-62.07
3.27;-56.52;-35.94;-2.29;4.79;-10.56
16.12;-4.90;-9.37;-2.29;8.82;28.97
12.09;5.55;8.39;-6.32;9.69;36.26
1.63;36.15;30.06;-1.52;4.79;26.57
0.87;49.00;42.14;-2.29;18.51;39.42
4.03;90.06;50.20;6.53;-0.87;44.32
8.82;98.12;74.38;3.38;-0.87;23.30
4.79;98.99;63.92;-8.71;2.40;34.63
11.33;84.51;57.50;-0.65;0.76;44.32
27.44;45.85;50.20;2.50;-5.66;10.45
31.47;57.06;36.59;-1.52;-3.27;0.76
41.06;9.58;12.41;19.49;-22.54;-49.99
14.48;-25.05;-15.79;-1.52;-5.66;-39.53
-57.17;-42.04;-27.12;1.74;-5.66;-11.33
-78.95;-66.21;-48.02;19.49;-4.03;-0.00
-101.49;-117.72;-69.80;-4.68;0.76;-3.27
-56.41;-120.12;-79.50;-3.92;4.03;-12.96
5.66;-109.66;-67.41;-3.92;6.43;-24.18
31.47;-93.55;-64.14;-17.64;5.66;-22.54
55.65;-79.06;-52.05;-9.58;-20.91;-13.72
8.82;-57.28;-35.17;1.74;4.79;-23.41
-34.63;-23.52;-13.39;-2.29;7.19;-37.13
-45.96;-0.11;8.39;-0.65;-34.63;16.12
-24.18;20.80;24.50;-26.46;-3.27;16.88
36.26;57.93;51.84;0.11;2.40;-6.53
44.32;104.65;74.38;7.41;-7.30;26.57
-8.06;101.39;75.25;5.77;8.06;22.54
13.72;95.72;63.16;6.53;-0.87;12.85
21.78;87.66;62.29;0.11;-0.87;27.33
20.91;85.27;52.71;2.50;-0.87;-6.53
8.82;57.93;23.63;3.38;4.03;10.45
-10.45;29.73;13.18;8.93;2.40;4.03
0.87;-9.80;-11.00;-1.52;-4.03;-26.57
-21.78;-20.26;-27.12;-7.19;-6.43;-22.54
-14.48;-58.15;-41.60;0.11;0.76;-10.56
-4.79;-92.02;-64.90;-1.52;17.75;-12.09
27.44;-106.50;-66.54;-2.29;-2.40;-26.57
-12.09;-99.97;-64.14;-11.22;-4.03;-58.81
15.35;-92.78;-64.14;-6.32;-12.85;-62.84
-8.06;-80.69;-55.32;-0.65;-7.30;-45.19
-19.28;-75.90;-30.27;-4.68;3.16;-20.15
-15.25;-21.89;-2.94;2.50;6.43;27.33
4.79;12.74;22.11;-1.52;7.19;40.29
16.88;35.28;50.20;2.50;16.12;48.35
16.88;56.30;49.44;3.38;7.19;49.88
-10.45;82.87;67.95;8.17;7.19;57.93
-17.75;106.18;75.25;3.38;-4.03;12.85
8.82;123.93;70.35;5.77;-33.87;16.88
8.06;97.36;67.95;-3.16;-13.72;32.23
4.03;94.09;51.84;2.50;-6.43;5.55
8.06;59.46;29.29;1.74;-2.40;7.19
1.63;29.73;6.75;2.50;-2.40;-10.56
-30.60;-15.46;-12.63;-7.19;-10.45;1.52
-0.76;-38.77;-27.88;4.90;-4.03;1.52
36.26;-53.25;-47.26;4.90;-2.40;-32.23
42.69;-92.78;-70.57;-1.52;0.76;-49.99
-1.63;-105.63;-77.86;-2.29;4.79;-71.77
-42.69;-101.60;-75.47;-2.29;5.66;-50.75
-60.44;-101.60;-64.90;-1.52;8.82;-21.02
-35.39;-82.33;-49.66;-3.92;13.72;0.76
8.82;-51.73;-13.39;-3.16;27.33;25.70
29.84;-15.46;-10.13;-1.52;12.85;34.63
11.33;22.43;18.84;2.50;7.19;39.42
-33.00;48.24;48.68;1.74;6.43;45.08
-18.51;74.81;48.68;2.50;4.79;49.88
-31.36;95.72;71.98;1.74;-28.21;-4.90
-26.57;98.99;76.01;10.56;-22.54;-29.84
-0.76;94.96;70.35;28.31;-12.85;-45.96
8.06;82.11;66.32;4.90;-2.40;-49.99
11.33;74.81;54.23;0.11;-0.87;15.25
5.66;51.40;34.96;0.11;-2.40;45.08
21.78;26.46;12.41;-0.65;-4.03;41.06
33.00;-12.20;-9.37;2.50;0.76;39.42
28.21;-43.67;-24.72;10.56;-2.40;0.76
4.03;-62.94;-41.60;-1.52;0.76;-45.19
-20.91;-92.78;-64.90;-3.92;-2.40;-37.90
-33.00;-106.50;-78.63;-0.65;13.72;-49.99
-49.11;-98.45;-71.44;-1.52;-2.40;-107.16
-10.45;-87.12;-68.17;-3.16;4.79;-12.09
-8.06;-79.93;-52.05;1.74;8.82;-6.53
-18.51;-46.83;-13.39;1.74;4.79;-5.66
-19.28;-28.31;-15.03;-22.43;5.66;-7.30
-9.69;20.04;14.05;-3.92;6.43;12.09
7.30;44.21;26.14;-4.68;3.16;24.94
-1.63;67.52;43.02;4.90;4.03;20.15
-23.30;104.65;73.62;3.38;5.66;25.70
36.26;115.11;76.01;1.74;-4.03;37.79
28.21;108.68;64.80;5.77;4.03;37.79
15.35;82.87;63.16;2.50;6.43;31.36
19.38;86.14;63.16;5.77;-2.40;66.86
62.84;65.99;35.72;7.41;4.03;64.47
33.87;31.25;10.02;3.38;-14.48;7.19
2.40;-6.53;-22.22;1.74;-15.35;-21.78
-10.45;-24.28;-43.23;-1.52;-3.27;-36.26
-12.85;-46.06;-48.90;-2.29;7.19;-70.89
3.27;-83.09;-66.54;3.38;4.79;-54.01
-4.03;-97.57;-78.63;-10.35;-16.88;-60.44
-12.09;-101.60;-68.17;-4.68;-8.82;-27.44
-16.88;-92.02;-63.38;-3.16;4.79;0.76
-20.15;-93.55;-52.93;-2.29;5.66;12.85
-9.69;-59.79;-33.54;-10.35;4.79;1.52
-44.32;-30.71;-5.34;-3.16;5.66;2.40
-21.78;5.55;23.63;1.74;12.09;-5.66
-36.26;36.15;38.99;1.74;5.66;-11.33
-41.06;40.18;55.87;25.05;-23.41;-11.33
-37.03;75.58;79.28;1.74;-20.15;3.16
70.89;90.06;84.07;-0.65;-3.27;27.33
116.85;81.24;73.62;8.93;0.76;28.21
79.82;107.05;76.01;-5.55;3.16;34.63
-18.51;57.06;67.19;5.77;4.03;27.33
-36.26;34.52;50.20;16.23;2.40;15.25
-24.18;-2.50;24.50;29.08;3.16;-11.33
-56.41;-44.43;-4.57;-2.29;-0.87;-27.44
-50.75;-66.21;-21.45;-2.29;2.40;-25.05
-30.60;-61.31;-47.26;-24.83;4.79;-18.51
-23.30;-116.09;-76.23;-4.68;0.76;-12.09
0.87;-128.18;-84.29;-1.52;4.79;-9.69
25.81;-110.53;-71.44;2.50;14.48;20.15
7.30;-107.27;-60.11;-2.29;16.12;1.52
3.27;-79.93;-52.05;-3.16;17.75;-2.50
-0.76;-46.06;-29.51;-3.16;4.79;-8.93
-33.87;-20.26;-13.39;-5.55;9.69;18.51
-31.36;16.01;15.57;0.11;-0.00;29.73
-6.43;31.25;36.59;4.90;-16.12;-27.44
-8.06;57.93;50.20;3.38;-5.66;-9.69
37.90;95.72;80.04;4.14;-4.90;27.33
53.14;85.27;80.04;-25.70;2.40;21.67
34.63;75.58;76.01;5.77;5.66;27.33
-13.72;68.39;67.95;1.74;-0.00;27.33
-47.48;77.21;62.29;3.38;-4.90;18.51
-24.18;24.07;24.50;3.38;4.03;39.42
3.27;-14.59;7.51;-4.68;2.40;23.30
-9.69;-42.04;-14.16;-28.86;0.76;4.79
-11.22;-58.91;-31.15;2.50;-5.66;-50.75
-33.87;-81.46;-52.05;-9.58;-0.87;-78.19
-44.32;-112.93;-78.63;-3.16;4.79;-76.56
-7.19;-123.38;-86.68;-7.95;-6.43;-71.77
37.03;-107.27;-73.83;-7.95;-7.30;-62.84
91.80;-92.78;-67.41;-7.19;6.43;4.03
70.89;-83.96;-61.75;2.50;7.19;15.25
37.90;-54.12;-41.60;3.38;10.45;24.94
-24.18;-22.65;-2.07;-2.29;8.82;27.33
-13.72;-4.14;24.50;-1.52;6.43;28.97
28.97;18.40;41.38;0.87;3.16;27.33
-5.66;40.18;47.81;-2.29;0.76;27.33
3.27;65.12;76.01;3.38;16.88;22.54
4.03;81.24;78.41;2.50;4.79;19.28
41.93;74.81;71.98;4.14;7.19;28.97
16.12;62.73;63.92;3.38;-19.38;15.25
10.45;57.93;52.71;0.11;-4.03;20.15
-16.88;20.04;34.96;-19.17;-0.87;7.19
-1.63;1.52;15.57;1.74;-4.03;8.82
-16.88;-46.06;-19.82;4.90;-8.82;42.69
-12.85;-76.67;-17.42;-1.52;-33.87;15.25
-35.39;-95.18;-37.57;-1.52;-21.78;-7.30
-20.15;-123.38;-70.57;-39.31;4.79;-29.08
-6.43;-94.42;-74.60;-6.32;7.19;-44.32
-70.13;-98.45;-60.98;-2.29;10.45;-41.16
13.72;-69.37;-52.93;0.11;7.19;-12.96
20.15;-67.84;-36.81;2.50;16.88;-16.12
-33.87;-44.43;-15.79;-0.65;29.84;-9.69
-4.79;-41.16;4.36;-26.46;-17.75;-58.04
6.43;24.07;25.26;2.50;-8.06;-24.18
20.91;44.21;51.84;8.93;10.45;17.64
33.87;68.39;76.01;7.41;8.06;41.06
33.87;104.65;110.64;10.56;4.79;34.63
18.51;108.68;112.28;8.17;4.79;44.32
4.03;98.12;97.79;3.38;-2.40;0.76
1.63;87.66;92.13;-4.68;-7.30;-2.50
2.40;86.14;84.94;1.74;-9.69;3.16
1.63;40.95;74.38;-0.65;-4.90;13.61
-4.03;4.68;35.72;-2.29;2.40;5.55
-9.69;-30.71;1.09;1.74;0.76;6.43
16.88;-0.11;-23.85;-1.52;2.40;4.03
28.97;-66.97;-48.02;-3.16;2.40;-11.33
-22.54;-98.45;-81.02;-3.92;6.43;-26.57
-48.35;-104.87;-91.58;-32.89;9.69;-22.54
-52.38;-96.81;-84.29;-2.29;10.45;5.55
-49.99;-97.57;-78.63;-3.92;-2.40;-28.21
-16.88;-71.87;-54.45;-4.68;-7.30;-26.57
11.33;-46.06;-42.36;-30.49;0.76;25.70
26.57;-8.17;-19.06;4.14;10.45;53.14
37.90;28.10;21.24;-1.52;12.09;3.16
16.12;41.82;34.96;0.11;7.19;-5.66
4.79;70.78;54.23;-2.29;1.63;-6.53
3.27;114.24;75.25;8.17;-2.40;7.19
4.03;91.69;86.47;-24.07;-2.40;1.52
3.27;82.87;93.00;6.53;-0.00;20.15
4.03;74.05;67.95;5.77;-4.03;18.51
1.63;65.99;59.13;10.56;-4.03;10.45
-8.06;32.89;30.06;-0.65;-0.00;39.42
-16.88;31.25;0.33;-3.16;-8.82;49.88
-19.28;-15.46;-27.12;3.38;-8.82;18.51
0.87;-44.43;-56.08;0.11;10.45;0.76
26.57;-67.84;-82.66;-3.16;0.76;-20.15
16.12;-106.50;-104.44;-0.65;-0.00;-49.99
0.87;-118.59;-102.80;-1.52;-4.90;-83.85
-22.54;-97.57;-86.68;-15.25;-12.85;-87.88
-36.26;-92.02;-76.23;-9.58;-7.30;-47.59
-12.09;-62.94;-54.45;-3.16;3.16;-13.72
7.30;-53.25;-23.85;-2.29;4.79;12.85
-11.22;-5.77;10.02;-2.29;4.79;10.45
-10.45;33.76;32.56;-3.16;8.82;16.88
-10.45;44.98;44.65;2.50;5.66;15.25
56.41;82.11;63.16;-2.29;-8.82;-5.66
70.13;120.77;93.76;0.11;-0.00;12.09
41.93;123.17;89.73;5.77;4.79;20.15
-4.03;96.59;76.88;4.90;4.79;-15.35
-16.88;103.02;67.19;11.43;3.16;20.15
14.48;70.02;55.87;2.50;4.79;90.17
-12.85;40.18;29.29;-3.16;4.79;103.89
-62.84;16.01;-15.03;2.50;-0.00;45.85
-56.41;-21.89;-30.27;-1.52;-3.27;-26.57
-29.84;-46.06;-52.93;-15.25;-10.45;-60.44
-0.76;-59.79;-62.51;-35.28;-4.03;-91.04
14.48;-97.57;-95.61;3.38;-23.41;-99.10
-13.72;-97.57;-101.17;-10.35;-41.06;-75.79
-22.54;-83.96;-86.68;-7.19;-28.97;-12.09
-62.84;-87.12;-78.63;31.58;-2.40;-12.09
-14.48;-71.00;-75.47;0.11;14.48;1.52
66.86;-18.62;-51.29;-2.29;16.88;27.33
88.64;5.55;-11.76;7.41;30.60;42.69
38.66;51.40;22.87;2.50;18.51;43.45
-11.22;78.84;38.99;8.17;15.25;42.69
-41.06;82.87;55.10;7.41;14.48;29.73
21.78;108.68;80.04;2.50;5.66;28.21
-9.69;107.05;97.79;-1.52;4.79;31.36
5.66;98.12;88.97;3.38;4.79;28.97
28.97;82.87;91.37;9.80;0.76;36.26
16.88;62.73;62.29;0.11;-1.63;-5.66
42.69;46.61;37.35;4.14;-5.66;-6.53
64.47;5.55;2.72;-20.80;-6.43;10.45
27.44;-30.71;-21.45;-2.29;-3.27;12.09
-21.78;-62.94;-44.00;-3.92;2.40;12.85
-58.81;-69.37;-65.78;-2.29;7.19;25.70
-118.37;-77.43;-96.38;0.11;5.66;-6.53
-45.96;-79.93;-96.38;-1.52;9.69;-35.50
-21.78;-86.36;-89.08;14.59;8.82;-58.04
20.91;-60.55;-76.23;-2.29;4.03;-36.26
66.10;-46.06;-68.17;1.74;12.85;-24.18
54.01;-27.55;-64.14;-2.29;-2.40;-78.95
36.26;12.74;-23.09;-2.29;-3.27;-38.66
-35.39;54.67;10.78;-0.65;-0.00;-1.63
-56.41;78.84;24.50;2.50;-15.35;27.33
-14.48;107.81;39.75;11.43;-4.90;61.96
4.79;138.41;76.01;0.87;-9.69;57.17
15.35;127.20;68.82;0.87;-8.82;33.00
-1.63;112.71;57.50;6.53;-4.90;10.45
3.27;129.59;55.10;1.74;-8.82;5.55
-11.22;85.27;43.02;6.53;-18.51;26.57
12.09;51.40;23.63;6.53;-17.75;-9.69
42.69;10.35;-11.76;1.74;-20.91;-27.44
49.11;-7.41;-25.48;-3.16;-8.82;-11.33
-27.33;-43.67;-71.44;-0.65;-7.30;-45.96
-34.63;-46.06;-85.92;-3.92;-4.03;-38.66
-8.06;-75.90;-110.10;5.77;-0.00;-54.01
-22.54;-92.78;-111.73;-0.65;4.03;-54.78
4.03;-83.96;-66.54;5.77;-5.66;-12.96
4.03;-71.87;-90.71;-3.16;12.09;12.09
-5.66;-57.28;-64.90;-6.32;16.88;27.33
-4.03;-27.55;-36.81;1.74;15.25;24.94
-9.69;-12.20;-1.31;8.93;14.48;15.25
-7.19;15.14;30.93;-0.65;16.88;4.79
-16.12;40.18;50.20;0.11;12.09;-8.06
-29.84;49.00;77.65;21.89;3.16;21.67
7.30;90.06;105.85;4.90;-4.03;41.82
13.72;91.69;105.09;3.38;-8.82;68.50
12.09;82.11;101.06;5.77;-9.69;64.47
67.74;42.58;88.97;6.53;-3.27;31.36
42.69;60.33;71.98;5.77;-2.40;-5.66
-7.19;31.25;58.26;0.87;-2.40;-29.84
-6.43;-2.50;18.08;-2.29;-4.03;-28.21
3.27;-40.40;-19.82;0.11;-20.91;-22.54
3.27;-35.61;-45.63;-2.29;-10.45;-5.66
16.88;-65.34;-66.54;-2.29;0.76;-18.51
-0.76;-99.97;-103.67;-11.22;4.79;-16.99
-11.22;-110.53;-118.92;-26.46;10.45;-6.53
-36.26;-88.75;-107.70;-5.55;-0.87;-23.41
-46.72;-83.96;-89.95;-7.95;-3.27;-24.18
-36.26;-72.64;-64.90;-6.32;7.19;-22.54
-22.54;-30.71;-51.29;-2.29;4.03;-11.33
-8.06;5.55;-9.37;-3.16;2.40;3.16
-1.63;47.37;25.26;-3.92;4.79;26.57
3.27;61.09;48.68;0.11;7.19;14.48
3.27;74.05;58.26;6.53;5.66;24.94
41.06;91.69;87.34;0.87;5.66;29.73
0.00;108.68;89.73;8.93;4.03;18.51
28.97;96.59;77.65;4.90;-3.27;19.28
41.93;99.75;80.04;-2.29;-5.66;18.51
20.91;82.11;60.77;4.90;-4.90;13.61
11.33;54.67;34.96;3.38;2.40;27.33
19.38;31.25;-1.31;-2.29;0.76;6.43
-20.15;-15.46;-38.33;8.93;-16.12;-8.93
12.09;-41.16;-48.02;3.38;4.03;-11.33
16.88;-57.28;-61.75;-32.13;-5.66;-31.47
2.40;-83.96;-102.80;-3.16;-3.27;-46.72
-0.76;-83.09;-104.44;0.11;-0.00;-30.60
-7.19;-71.87;-81.89;-3.16;6.43;-15.35
-5.66;-60.55;-68.93;-3.16;1.63;-25.81
12.09;-54.12;-48.90;0.11;4.03;-22.54
28.97;-31.58;-32.78;-2.29;4.79;-6.53
35.50;1.52;1.09;-3.92;4.79;-0.87
-5.66;40.18;47.81;-0.65;4.79;16.12
-51.51;55.43;54.23;-2.29;-4.03;27.33
-99.86;72.42;63.16;-1.52;23.30;27.33
-37.90;108.68;97.79;3.38;12.09;27.33
-22.54;108.68;98.55;-1.52;-4.03;12.85
-59.57;84.51;88.97;0.87;-6.43;-21.78
-33.00;74.05;88.10;-5.55;-8.82;-24.18
13.72;82.11;73.62;0.87;-4.03;-8.93
102.37;69.15;46.17;0.11;-20.15;-16.12
72.53;23.20;10.02;-7.95;-3.27;-11.33
44.32;-7.41;-17.42;-3.92;-2.40;0.76
75.79;-20.26;-42.36;-3.16;0.76;2.40
12.09;-62.94;-68.17;0.11;4.79;1.52
-28.97;-102.47;-106.83;-9.58;4.79;-16.12
7.30;-99.97;-104.44;-12.74;5.66;10.45
28.97;-86.36;-85.92;-3.16;6.43;19.28
11.33;-72.64;-78.63;-4.68;4.79;-12.09
-35.39;-46.06;-69.80;-3.92;9.69;-2.50
-65.23;-20.26;-47.26;0.11;12.09;6.43
-12.85;10.35;-15.79;8.17;28.21;10.45
-20.15;48.24;22.11;6.53;12.85;1.52
-28.21;65.99;42.14;-0.65;4.03;-41.93
-29.84;96.59;66.32;0.11;4.79;1.52
13.72;107.05;99.43;1.74;4.79;25.70
13.72;104.65;101.82;-2.29;-0.87;3.16
-13.72;104.65;80.91;3.38;-8.82;0.76
10.45;86.90;81.67;4.14;-20.91;-9.69
4.79;72.42;67.95;-3.16;-22.54;-0.87
-4.03;43.34;26.14;0.11;-8.06;-2.50
-44.32;21.67;-10.13;0.11;-18.51;-8.06
2.40;-20.26;-35.17;-7.19;-7.30;12.09
2.40;-46.06;-47.26;-4.68;-4.03;16.12
2.40;-61.31;-78.63;-2.29;-4.03;-6.53
-7.19;-98.45;-108.46;-2.29;16.12;-14.48
-26.57;-101.60;-128.61;-2.29;8.82;-21.78
-21.78;-93.55;-104.44;-2.29;7.19;-31.47
-29.84;-79.93;-58.48;-3.92;-4.03;-34.63
-20.15;-87.12;-84.29;3.38;5.66;-21.78
14.48;-30.71;-44.00;-2.29;-2.40;22.54
66.86;0.65;-0.54;-0.65;4.79;48.35
66.86;72.42;28.53;-26.46;12.85;45.08
27.44;57.06;53.47;-2.29;6.43;24.94
37.90;72.42;65.56;1.74;9.69;29.73
58.04;108.68;101.82;5.77;4.79;32.23
54.78;114.24;107.48;-0.65;-11.33;-35.50
-47.48;102.15;89.73;-0.65;0.76;-11.33
-111.19;156.16;80.04;2.50;-2.40;12.85
-103.89;159.43;76.01;9.80;4.79;9.58
-48.35;119.90;50.20;7.41;8.82;23.30
-8.82;75.58;10.02;-2.29;3.16;-11.33
56.41;36.15;-52.93;-3.16;-4.03;-2.50
12.85;12.74;-55.32;-2.29;4.79;-20.15
-29.84;-14.59;-74.60;4.90;4.79;-55.65
-7.19;-58.91;-100.41;-1.52;10.45;-39.53
-11.22;-79.93;-91.58;-8.71;-0.00;-36.26
-20.91;-73.40;-93.11;-3.92;-7.30;-34.63
-0.76;-66.21;-77.86;10.56;9.69;16.88
3.27;-54.89;-68.17;-2.29;-6.43;2.40
2.40;-34.74;-41.60;-6.32;-18.51;-10.56
16.12;-5.77;-5.34;-3.92;-4.90;1.52
54.78;23.20;38.11;-28.10;4.03;15.25
8.82;40.95;51.84;9.80;-4.90;4.79
-12.09;50.64;68.82;-2.29;-3.27;12.85
-21.78;74.81;101.82;-22.43;-4.03;33.00
-20.91;82.87;111.51;0.87;-3.27;14.48
-20.91;49.00;101.82;-4.68;-3.27;15.25
3.27;70.78;84.07;1.74;4.03;-7.30
74.92;42.58;72.85;29.08;4.03;11.22
58.81;38.55;48.68;9.80;-0.00;-2.50
39.53;5.55;9.15;6.53;-1.63;-5.66
18.51;-32.34;-27.12;0.11;17.75;-8.06
4.03;-51.73;-44.00;0.87;-0.00;-12.09
3.27;-71.87;-64.90;-2.29;-3.27;-32.23
17.75;-98.45;-83.53;-6.32;8.82;-28.21
-22.54;-109.66;-104.44;0.87;10.45;-12.96
-10.45;-82.33;-85.92;-2.29;8.82;3.16
-25.81;-76.67;-84.29;-2.29;5.66;-5.66
-99.86;-71.87;-60.11;12.20;8.82;-2.50
-58.81;-75.90;-37.57;-7.19;4.03;6.43
-2.40;-11.43;-1.31;-3.92;4.79;4.03
24.94;22.43;33.32;-0.65;3.16;4.79
33.87;50.64;49.44;12.96;0.76;-2.50
3.27;82.87;64.80;0.11;-20.91;21.67
-18.51;94.09;98.55;5.77;1.63;26.57
-10.45;97.36;101.82;-0.65;-0.00;44.32
-5.66;72.42;89.73;6.53;-3.27;44.32
2.40;65.12;80.04;10.56;-0.87;37.79
5.66;56.30;64.80;9.80;-10.45;27.33
13.72;26.46;45.41;4.90;3.16;-11.33
12.09;1.52;10.02;-3.92;-2.40;-16.12
4.79;-30.71;-23.09;-3.92;-4.03;-47.59
-9.69;-55.76;-39.97;-3.16;-2.40;-55.65
-8.82;-73.40;-64.14;0.11;1.63;-26.57
-13.72;-103.24;-100.41;-2.29;-4.03;-31.47
-8.06;-111.30;-106.07;-2.29;-19.38;-31.47
7.30;-93.55;-95.61;-1.52;-15.35;-20.15
78.95;-82.33;-89.08;1.74;-2.40;12.85
42.69;-58.91;-67.41;3.38;10.45;24.94
28.21;-43.67;-31.15;0.11;9.69;19.28
-35.39;-7.41;-1.31;-2.29;-12.85;45.08
-74.16;36.15;28.53;-1.52;-2.40;68.50
-48.35;49.00;52.71;4.90;2.40;19.28
-65.23;57.06;77.65;-2.29;-7.30;-15.35
-4.03;95.72;101.82;0.11;-6.43;-33.11
49.99;126.32;107.48;33.98;-2.40;-45.96
45.96;85.27;87.34;9.80;-16.12;-40.29
8.82;71.55;87.34;0.87;6.43;-25.81
11.33;61.96;64.80;-2.29;-6.43;1.52
14.48;31.25;35.72;0.11;-12.85;6.43
8.82;4.68;-1.31;3.38;-7.30;1.52
7.30;-25.92;-27.12;-3.16;3.16;-21.78
3.27;-79.06;-55.32;-0.65;5.66;-12.09
-4.79;-66.97;-81.02;-3.92;5.66;-18.51
-20.15;-97.57;-105.20;-3.92;-13.72;-21.78
-20.15;-98.45;-106.83;-2.29;6.43;-24.18
-16.88;-92.02;-96.38;-0.65;7.19;-15.35
-11.22;-110.53;-89.08;-3.92;4.03;-11.33
-14.48;-71.87;-66.54;21.02;4.79;15.25
-0.76;-57.28;-32.78;-3.16;-0.00;12.09
29.84;-13.83;-2.07;0.11;0.76;25.70
37.90;27.22;34.96;3.38;4.79;27.33
16.12;41.82;47.81;3.38;7.19;28.97
5.66;57.06;74.38;8.17;33.00;26.57
-8.82;95.72;100.19;6.53;2.40;2.40
-14.48;94.96;101.82;5.77;-4.03;27.33
54.01;94.09;86.47;6.53;-6.43;25.70
58.81;74.81;78.41;5.77;-12.85;-0.00
15.35;57.06;75.25;10.56;-21.78;8.82
26.57;11.11;60.77;19.49;-5.66;2.40
-23.30;3.92;20.47;-3.16;-0.00;16.12
-35.39;-43.67;-19.06;4.14;3.16;-14.48
-53.14;-61.31;-37.57;-2.29;2.40;-18.51
-29.84;-70.24;-57.72;1.74;-0.87;-25.05
-22.54;-104.87;-98.77;0.11;2.40;-26.57
-22.54;-98.45;-102.80;-1.52;7.19;-18.51
-6.43;-71.87;-81.89;-0.65;9.69;-23.41
-4.03;-71.87;-81.02;-4.68;4.79;-14.48
-47.48;-75.03;-61.75;-3.92;4.79;10.45
10.45;-50.09;-27.12;-1.52;0.76;16.88
38.66;-16.23;12.41;2.50;4.03;16.88
16.88;32.89;38.99;0.11;-0.87;10.45
1.63;40.95;50.20;3.38;4.79;10.45
8.82;57.06;75.25;1.74;4.79;8.06
30.60;84.51;78.41;6.53;9.69;70.89
33.87;94.96;101.82;0.87;13.72;95.83
31.47;82.87;84.07;3.38;1.63;40.29
-14.48;74.05;76.01;3.38;-8.06;0.76
-20.91;61.96;62.29;3.38;-13.72;-49.99
-26.57;36.15;34.96;0.11;-19.38;-54.78
-37.90;-5.77;6.75;-2.29;-33.00;-73.40
-48.35;-29.08;-37.57;-7.19;-50.75;-49.99
-74.92;-41.16;-68.93;-6.32;-20.91;-18.51
-10.45;-59.79;-98.77;-2.29;4.79;4.03
16.12;-96.81;-122.19;-2.29;23.30;-0.87
28.97;-103.24;-135.91;-3.16;24.94;-7.30
15.35;-101.60;-89.08;-2.29;17.75;-6.53
2.40;-80.69;-78.63;-1.52;19.28;6.43
2.40;-66.97;-58.48;-2.29;15.25;16.88
-13.72;-43.67;-31.15;6.53;-12.85;-37.90
-13.72;-29.08;-8.60;-5.55;-28.97;-25.05
-4.03;17.64;26.90;-5.55;-6.43;-13.72
13.72;32.13;46.17;-2.29;26.57;-33.87
18.51;31.25;52.71;-4.68;4.79;-11.33
26.57;91.69;75.25;3.38;9.69;25.70
37.90;97.36;79.28;37.13;5.66;27.33
17.75;86.90;53.47;4.14;-3.27;12.09
-7.19;81.24;45.41;6.53;-7.30;48.35
-20.91;63.49;28.53;2.50;22.54;36.26
-11.22;40.95;-5.34;3.38;-1.63;19.28
1.63;1.52;-31.91;-0.65;-20.15;6.43
20.15;-20.26;-68.17;2.50;-2.40;-4.03
-2.40;-45.19;-82.66;7.41;-4.03;-8.93
-0.76;-57.28;-96.38;-2.29;4.79;-12.09
13.72;-96.81;-121.31;-2.29;5.66;-12.09
17.75;-97.57;-121.31;-3.16;3.16;0.76
42.69;-84.72;-110.10;-4.68;4.79;34.63
8.06;-82.33;-84.29;16.23;21.78;19.28
-48.35;-62.94;-61.75;0.11;12.09;1.52
-68.50;-42.04;-32.78;-2.29;8.82;0.76
-48.35;-12.96;14.81;-4.68;5.66;-37.90
-84.62;7.95;36.59;3.38;4.79;-41.93
-56.41;56.30;53.47;-24.07;-5.66;-41.16
-48.35;54.67;76.01;-2.29;-7.30;5.55
-24.94;72.42;105.85;0.11;-9.69;17.64
29.84;94.09;107.48;-1.52;-15.35;21.67
80.59;82.11;93.00;5.77;-6.43;40.29
103.89;83.64;91.37;6.53;1.63;49.88
94.31;82.87;81.67;8.93;4.79;31.36
70.13;55.43;59.13;2.50;-4.90;14.48
3.27;6.32;17.21;1.74;-4.03;-12.09
-12.09;-21.02;-19.82;-6.32;-5.66;7.19
-29.84;-46.83;-37.57;-2.29;-4.03;-13.72
0.00;-71.00;-42.36;-3.92;-0.87;-20.15
-9.69;-84.72;-89.95;-4.68;-0.87;-25.05
8.82;-97.57;-93.11;-6.32;4.03;-25.05
-31.36;-95.94;-78.63;1.74;8.82;-15.35
-74.16;-74.27;-69.80;-16.77;7.19;-15.35
-29.84;-67.84;-52.93;-1.52;4.79;-9.69
-23.30;-21.89;-35.94;-0.65;5.66;15.25
7.30;-8.17;-8.60;0.87;8.82;13.61
37.90;30.49;30.06;-0.65;4.79;16.88
-8.82;36.15;45.41;-3.16;4.79;24.94
-39.42;57.06;64.80;0.11;4.79;-10.56
-22.54;88.54;94.53;5.77;3.16;12.85
2.40;99.75;104.22;1.74;-13.72;-6.53
16.12;68.39;94.53;0.87;-18.51;-12.96
80.59;112.71;84.07;-22.43;-3.27;19.28
77.32;70.02;76.01;3.38;-5.66;29.73
55.65;42.58;50.20;-2.29;-0.00;34.63
4.03;9.58;15.57;-2.29;-7.30;7.19
-62.84;-25.05;-17.42;-3.92;23.30;-0.87
-57.17;-44.43;-37.57;-2.29;-11.33;-21.78
-34.63;-71.87;-66.54;-2.29;-31.47;-62.84
-21.78;-95.94;-96.38;0.11;-15.35;-82.98
-12.09;-103.24;-96.38;-9.58;-5.66;-54.01
-20.15;-93.55;-80.26;-4.68;4.79;-5.66
-14.48;-87.12;-76.23;0.11;15.25;23.30
3.27;-59.79;-60.98;-32.89;14.48;27.33
6.43;-42.80;-47.26;-6.32;28.97;27.33
12.09;-4.90;-2.94;-2.29;16.12;-0.87
28.21;40.18;26.90;1.74;3.16;16.12
41.06;44.21;45.41;-2.29;2.40;14.48
28.97;57.06;67.19;6.53;2.40;-8.06
16.12;94.96;86.47;10.56;-2.40;-5.66
14.48;96.59;93.00;4.90;-4.90;29.73
4.79;86.90;83.31;-6.32;-10.45;38.66
-27.33;65.99;75.25;4.90;-3.27;36.26
-5.66;67.52;64.80;5.77;-2.40;19.28
-35.39;52.27;18.84;33.11;-2.40;-2.50
-33.00;11.11;-34.30;-6.32;-21.78;-25.05
-41.06;-18.62;-86.68;0.11;-8.06;-54.01
-13.72;-42.04;-87.56;-2.29;-17.75;-51.62
34.63;-57.28;-102.80;-1.52;-20.15;-49.99
-4.79;-97.57;-122.95;-5.55;-15.35;-15.35
13.72;-101.60;-134.27;-1.52;4.79;-7.30
16.12;-85.49;-113.26;0.11;15.25;-15.35
1.63;-84.72;-116.52;0.11;13.72;-32.23
5.66;-66.97;-91.58;-2.29;4.79;0.76
29.84;-34.74;-56.95;-1.52;0.76;0.76
2.40;2.29;-18.19;-0.65;6.43;-5.66
-17.75;31.25;10.02;0.87;5.66;1.52
-9.69;41.82;24.50;21.89;4.03;21.67
3.27;58.70;45.41;1.74;4.03;27.33
20.91;85.27;78.41;-1.52;1.63;36.26
28.97;86.90;85.70;3.38;-0.87;28.97
16.12;86.90;75.25;1.74;-5.66;36.26
7.30;71.55;80.91;8.17;-2.40;23.30
-29.84;55.43;71.22;-0.65;-4.03;18.51
-70.13;5.55;50.20;1.74;0.76;4.03
-24.18;6.32;16.44;-3.16;-2.40;1.52
31.47;-20.26;-10.13;0.11;-5.66;-7.30
-4.03;-46.06;-31.15;0.11;-3.27;1.52
0.87;-71.87;-48.02;-0.65;-1.63;-2.50
47.59;-84.72;-78.63;-1.52;5.66;-12.96
71.77;-87.12;-90.71;-3.92;4.79;-21.78
49.11;-82.33;-72.96;-4.68;-7.30;-24.18
29.84;-79.06;-68.17;-2.29;9.69;-11.33
-48.35;-32.34;-52.05;-3.16;12.85;-20.15
-84.62;-55.76;-31.15;-2.29;4.03;-12.09
-48.35;-6.53;7.51;-5.55;4.03;-8.93
-56.41;44.21;39.75;-15.25;-2.40;-8.93
-6.43;49.88;51.07;-2.29;1.63;1.52
35.50;62.73;71.98;5.77;4.03;22.54
45.96;83.64;96.16;0.11;-7.30;31.36
28.97;94.96;118.70;0.11;-13.72;23.30
58.81;94.96;99.43;5.77;-15.35;4.79
3.27;85.27;76.01;-0.65;-6.43;12.85
-21.78;57.93;67.19;0.87;-15.35;-3.27
-4.03;37.79;44.65;8.17;-6.43;-5.66
13.72;5.55;16.44;2.50;-4.03;-22.54
8.06;-20.26;-15.79;-2.29;4.79;-12.09
3.27;-45.19;-23.09;-0.65;5.66;6.43
-12.09;-57.28;-48.90;0.87;9.69;4.03
-42.69;-84.72;-82.66;-5.55;-4.03;-10.56
-18.51;-98.45;-78.63;14.59;-5.66;-26.57
26.57;-83.09;-72.96;-3.92;-0.00;-37.90
-0.76;-92.02;-60.98;-3.16;4.03;-36.26
20.91;-62.18;-81.02;-3.92;5.66;-15.35
-49.99;-46.06;-32.78;1.74;5.66;20.15
-43.45;-14.59;-6.10;0.11;8.82;34.63
-21.78;49.00;20.47;-2.29;0.76;36.26
-8.82;38.55;41.38;-0.65;-4.90;16.88
5.66;70.02;54.23;3.38;2.40;6.43
18.51;96.59;88.97;2.50;4.79;-16.99
23.41;103.78;96.16;-5.55;0.76;-36.26
11.33;110.21;87.34;-25.70;-10.45;-42.69
14.48;82.87;74.38;0.11;-12.85;-9.69
16.88;33.76;65.56;-0.65;-18.51;1.52
11.33;47.37;51.84;-0.65;-15.35;39.42
0.87;5.55;20.47;-10.35;-15.35;5.55
-4.03;-19.49;-21.45;-1.52;-8.82;7.19
-12.09;-38.77;-44.00;-4.68;-2.40;-5.66
0.87;-85.49;-68.17;-1.52;4.03;-8.93
4.03;-94.42;-91.58;18.62;4.79;-16.12
24.18;-97.57;-103.67;-7.19;12.85;2.40
7.30;-101.60;-104.44;-0.65;11.22;24.94
5.66;-76.67;-102.04;7.41;10.45;14.48
-26.57;-82.33;-86.68;-7.19;10.45;2.40
-36.26;-32.34;-52.93;-14.37;12.09;1.52
12.09;-12.96;-14.16;-1.52;12.85;19.28
80.59;27.22;32.56;1.74;8.06;7.19
144.18;40.18;50.20;3.38;4.79;-26.57
101.49;59.46;73.62;6.53;4.79;10.45
-38.66;86.90;101.82;25.92;-6.43;-4.90
-86.25;95.72;80.91;3.38;-3.27;10.45
-139.39;82.87;101.82;1.74;-18.51;-31.47
-99.10;57.06;102.58;-29.73;-12.09;1.52
-62.07;57.06;96.16;0.87;-8.82;-8.06
-20.15;35.28;76.01;0.11;-10.45;-25.81
14.48;5.55;36.59;1.74;-9.69;-5.66
24.18;-20.26;-4.57;-2.29;-7.30;3.16
-12.09;-46.06;-25.48;-2.29;-5.66;-0.00
-20.15;-71.87;-44.87;-1.52;4.79;-3.27
-8.82;-89.52;-66.54;-2.29;10.45;-5.66
5.66;-92.02;-78.63;-7.95;7.19;-10.56
7.30;-92.78;-63.38;-0.65;5.66;10.45
47.59;-71.87;-41.60;-2.29;20.15;37.79
28.97;-56.52;-47.26;1.74;14.48;39.42
18.51;-40.40;-25.48;0.11;13.72;2.40
2.40;-16.99;1.09;-7.95;12.09;3.16
0.87;25.70;24.50;27.55;15.25;-7.30
17.75;31.25;26.14;-0.65;-0.87;-24.18
73.29;70.78;49.44;-1.52;-20.91;25.70
59.68;106.18;63.92;3.38;-12.85;1.52
43.56;108.68;71.98;8.93;-8.82;-8.93
10.45;90.06;73.62;-1.52;-10.45;-0.87
-8.82;78.84;63.16;2.50;-4.03;4.03
-31.36;71.55;50.20;28.31;-5.66;4.03
-30.60;44.21;21.24;1.74;0.76;1.52
-37.03;19.17;7.51;3.38;1.63;-4.03
-37.90;-20.26;-26.24;7.41;-0.00;-11.33
15.35;-38.77;-44.87;3.38;4.03;-11.33
-4.79;-58.91;-61.75;-3.92;0.76;-16.12
-24.94;-89.52;-92.35;-9.58;3.16;-23.41
-31.36;-99.97;-98.77;0.11;3.16;-12.09
-14.48;-87.12;-91.58;-7.95;6.43;0.76
-8.06;-84.72;-77.86;-3.16;4.79;13.61
-0.76;-64.58;-52.93;-3.16;4.79;32.23
5.66;-71.87;-47.26;-1.52;4.79;-4.03
5.66;-20.26;-19.06;-1.52;5.66;-5.66
2.40;20.04;17.21;6.53;9.69;-2.50
-9.69;32.89;38.11;0.87;7.19;1.52
-2.40;45.85;50.20;6.53;7.19;14.48
-0.76;85.27;83.31;5.77;8.82;22.54
3.27;91.69;91.37;7.41;-2.40;12.09
3.27;79.61;73.62;3.38;-7.30;36.26
21.78;74.05;63.16;3.38;-16.88;35.39
7.30;66.76;43.78;0.11;-8.82;37.79
36.26;52.27;38.11;4.90;-16.88;40.29
44.32;19.17;-6.10;-0.65;-31.47;49.11
34.63;-16.23;-19.82;-2.29;1.63;26.57
-8.06;-24.28;-51.29;-0.65;3.16;-35.50
-84.62;-46.06;-54.45;-4.68;-12.09;-71.77
-50.75;-80.69;-83.53;-7.19;-5.66;-76.56
-47.48;-96.81;-99.64;-3.16;4.03;-85.49
-4.03;-74.27;-87.56;-7.19;-3.27;-91.04
-2.40;-75.90;-79.50;-7.19;-0.00;-54.78
-12.09;-66.97;-67.41;11.43;3.16;-12.09
-11.22;-42.04;-40.84;1.74;4.79;-0.87
-4.03;-10.56;-13.39;-0.65;21.78;9.58
33.00;16.01;37.35;-2.29;4.03;57.93
35.50;35.28;30.06;-1.52;7.19;44.32
62.07;51.40;47.81;6.53;9.69;41.06
49.99;78.84;76.88;5.77;7.19;35.39
-8.82;67.52;87.34;-14.37;4.79;33.00
-14.48;88.54;70.35;5.77;1.63;27.33
-10.45;83.64;64.80;3.38;4.03;24.94
-79.71;70.02;64.80;6.53;2.40;16.88
-82.98;34.52;51.84;4.90;-6.43;7.19
-78.95;17.64;10.02;6.53;-8.06;12.85
21.78;-21.02;-19.06;9.80;-2.40;16.12
6.43;-41.16;-27.12;-2.29;0.76;-2.50
79.82;-47.70;-52.93;16.23;1.63;-3.27
91.80;-69.37;-77.86;-3.92;3.16;7.19
8.06;-92.78;-109.23;-3.16;2.40;1.52
-20.15;-79.93;-86.68;-7.95;-7.30;-6.53
-8.06;-71.87;-77.86;-4.68;1.63;-20.15
1.63;-62.94;-56.08;-4.68;-12.85;-32.23
21.78;-41.16;-40.84;-2.29;-15.35;-40.29
-22.54;-14.59;-8.60;-30.49;-7.30;-49.99
-29.84;14.37;20.47;-2.29;4.03;-44.32
-26.57;32.89;33.32;-3.16;4.79;-7.30
-17.75;53.03;57.50;2.50;5.66;16.12
-23.30;78.84;76.01;0.87;3.16;19.28
41.06;105.42;88.10;6.53;0.76;-16.12
91.80;94.96;86.47;0.11;0.76;32.23
66.86;82.87;76.01;-20.80;-10.45;61.20
0.00;70.02;57.50;0.87;-7.30;19.28
26.57;36.92;36.59;2.50;0.76;15.25
67.74;6.32;20.47;0.87;-4.03;1.52
-24.94;-46.06;-23.85;-1.52;3.16;-9.69
-33.00;-48.46;-35.94;-1.52;4.79;-13.72
-22.54;-71.00;-58.48;-3.16;0.76;-24.18
-40.29;-109.66;-87.56;-2.29;4.03;-45.19
-36.26;-97.57;-89.95;-3.92;5.66;-6.53
-7.19;-89.52;-80.26;2.50;8.82;1.52
-4.03;-87.12;-76.23;-0.65;11.22;3.16
-6.43;-62.94;-60.98;2.50;12.85;6.43
-2.40;-45.19;-31.15;-4.68;15.25;16.12
15.35;-8.93;-1.31;10.56;19.28;27.33
5.66;7.95;24.50;4.90;5.66;-11.33
-12.09;36.92;60.77;1.74;8.82;-1.63
27.44;58.70;64.80;3.38;14.48;32.23
16.88;90.06;81.67;36.37;-2.40;39.42
0.87;95.72;84.94;9.80;-9.69;16.88
-31.36;82.87;76.01;5.77;-33.00;-24.18
-31.36;67.52;76.01;-2.29;-33.87;-29.84
-23.30;65.12;63.16;0.87;-21.78;-16.99
1.63;44.21;46.17;1.74;-16.88;-6.53
58.04;17.64;24.50;1.74;-9.69;-4.03
34.63;-50.86;-19.82;-2.29;0.76;-4.03
46.72;-35.61;-29.51;-3.16;28.97;0.76
42.69;-60.55;-58.48;-3.16;0.76;-8.93
2.40;-82.33;-84.29;-4.68;4.03;-15.35
-62.84;-86.36;-85.92;-3.92;13.72;-10.56
-108.79;-82.33;-82.66;-1.52;10.45;-12.96
-52.38;-58.91;-78.63;-9.58;5.66;-8.93
-31.36;-71.00;-52.93;-3.92;4.79;5.55
41.06;-46.06;-44.00;-0.65;4.79;24.18
18.51;-16.23;-8.60;-3.92;10.45;28.21
14.48;14.37;30.06;2.50;7.19;36.26
-50.75;38.55;19.60;-3.92;13.72;9.58
-37.90;57.06;52.71;2.50;10.45;27.33
-24.18;84.51;78.41;6.53;5.66;40.29
-1.63;114.24;89.73;4.90;-3.27;2.40
27.44;82.87;77.65;2.50;5.66;-0.00
29.84;80.48;66.32;8.93;-0.00;-25.81
-1.63;55.43;50.20;2.50;-7.30;-37.90
2.40;32.13;28.53;-2.29;-20.91;-49.99
2.40;5.55;-1.31;-0.65;-41.93;-20.15
8.82;-19.49;-23.09;-2.29;-46.72;-14.48
-1.63;-35.61;-31.91;-6.32;-8.82;-19.38
1.63;-62.94;-56.95;-6.32;-4.90;-42.69
16.12;-89.52;-87.56;0.11;4.03;-24.18
20.91;-95.94;-92.35;-4.68;6.43;-7.30
13.72;-88.75;-85.05;0.87;4.79;-2.50
15.35;-83.96;-78.63;0.11;8.82;-2.50
-2.40;-58.15;-65.78;-3.92;5.66;-0.00
-37.03;-33.11;-22.22;-3.16;14.48;1.52
-4.79;-4.90;-6.10;-20.80;10.45;13.61
11.33;17.64;20.47;0.11;5.66;27.33
3.27;41.82;38.11;3.38;8.06;13.61
-17.75;57.06;54.23;-2.29;3.16;16.88
-22.54;86.90;67.95;-0.65;1.63;12.85
-17.75;82.87;90.50;8.17;-5.66;15.25
-7.19;75.58;72.85;-0.65;-4.90;6.43
-37.03;74.05;70.35;6.53;-8.06;0.76
10.45;74.05;55.10;-0.65;-8.82;27.33
12.85;42.58;38.99;4.90;-4.03;17.64
28.21;9.58;8.39;3.38;-0.87;8.82
69.26;-20.26;-22.22;-1.52;-0.00;2.40
52.38;-42.80;-35.17;0.87;2.40;1.52
14.48;-62.94;-53.69;-3.16;-20.91;-16.12
-11.22;-97.57;-82.66;-13.61;6.43;-16.99
-1.63;-98.45;-87.56;-1.52;-0.87;-8.93
-20.15;-85.49;-78.63;-2.29;5.66;-8.93
-49.99;-79.06;-73.83;2.50;6.43;-36.26
-7.19;-67.84;-58.48;-2.29;-0.00;-47.59
24.18;-41.16;-34.30;-2.29;3.16;-21.02
6.43;-7.41;-11.76;-2.29;-4.03;-20.15
-10.45;27.22;23.63;-2.29;-4.03;-2.50
-24.18;53.03;32.56;-3.16;-3.27;1.52
-16.88;62.73;50.20;-1.52;-0.87;20.15
8.82;95.72;80.91;1.74;2.40;24.18
17.75;103.78;84.07;6.53;-2.40;24.94
14.48;82.87;78.41;-3.92;-3.27;20.15
28.97;72.42;64.80;1.74;-4.03;20.15
39.53;66.76;59.89;4.90;-0.00;9.58
24.18;32.89;44.65;0.11;-4.03;-3.27
-8.82;10.35;10.02;-6.32;-10.45;-7.30
-58.04;-18.62;-31.91;-3.92;-12.85;-12.09
-24.18;-46.06;-47.26;-2.29;-26.57;0.76
-45.96;-71.87;-52.93;-4.68;-5.66;1.52
-35.39;-79.06;-73.83;0.11;4.79;1.52
1.63;-96.81;-83.53;-3.92;7.19;-28.21
10.45;-84.72;-74.60;-3.92;12.09;-21.78
7.30;-73.40;-71.44;-4.68;14.48;-21.02
4.79;-71.00;-60.11;-2.29;13.72;-22.54
-10.45;-41.16;-38.33;-1.52;12.09;-8.06
-16.88;4.68;-10.13;8.17;15.25;24.94
-25.81;38.55;24.50;-3.16;4.79;20.15
2.40;36.92;36.59;-1.52;-6.43;15.25
30.60;51.40;88.10;0.11;-12.09;8.82
54.78;84.51;76.88;0.11;-4.03;18.51
80.59;92.56;96.16;10.56;8.82;34.63
72.53;85.27;75.25;24.28;4.79;25.70
8.06;69.15;76.88;0.87;-2.40;31.36
-91.04;70.02;67.95;0.87;0.76;67.63
-115.22;32.13;33.32;1.74;-13.72;23.30
-86.25;3.05;-0.54;-5.55;-28.21;-24.18
-13.72;-22.65;-23.09;-9.58;-21.78;-45.96
7.30;-45.19;-45.63;0.11;-21.78;-78.19
28.97;-66.21;-68.17;-4.68;-8.82;-75.79
18.51;-106.50;-86.68;0.87;4.79;-91.91
4.03;-95.94;-88.32;-10.35;4.79;-74.92
-5.66;-76.67;-76.99;-2.29;9.69;-29.08
16.88;-84.72;-77.86;-2.29;13.72;14.48
-1.63;-67.84;-60.11;-1.52;20.15;17.64
-5.66;-24.28;-35.17;-0.65;17.75;23.30
-7.19;-8.17;-8.60;-0.65;16.12;33.00
-4.79;43.34;24.50;-23.20;12.09;35.39
5.66;32.89;38.11;-2.29;3.16;33.00
16.12;57.06;59.13;0.87;4.03;33.00
24.18;90.93;89.73;6.53;2.40;11.22
68.50;113.47;101.06;6.53;-1.63;15.25
43.56;62.73;86.47;23.52;-4.03;-3.27
8.06;74.05;75.25;1.74;-6.43;2.40
3.27;61.09;62.29;-2.29;-16.12;-11.33
-4.03;44.21;36.59;-0.65;-16.12;-5.66
-2.40;-2.50;10.78;1.74;-4.03;-3.27
-1.63;-17.86;-27.12;-2.29;-3.27;-5.66
-14.48;-46.06;-36.81;-3.92;-0.87;-8.93
-22.54;-62.18;-56.95;1.74;3.16;-8.93
-30.60;-83.09;-83.53;17.86;4.03;0.76
-22.54;-92.02;-101.17;-1.52;-16.12;-3.27
-22.54;-79.93;-86.68;-2.29;4.79;-0.00
-39.42;-80.69;-77.86;-3.92;5.66;-4.03
-22.54;-51.73;-58.48;-3.92;4.79;-3.27
14.48;-53.25;-27.12;-1.52;2.40;-16.99
13.72;4.68;-0.54;-2.29;5.66;-3.27
31.47;27.22;25.26;2.50;4.03;3.16
51.62;55.43;35.72;-0.65;5.66;6.43
56.41;64.36;58.26;6.53;5.66;6.43
28.97;85.27;83.31;2.50;3.16;-15.35
-13.72;91.69;83.31;0.11;3.16;10.45
-27.33;82.87;72.85;0.11;8.82;18.51
-37.90;82.87;73.62;6.53;-1.63;18.51
-55.54;87.66;55.87;7.41;-8.82;18.51
-74.92;23.20;34.96;-3.16;-5.66;33.00
-35.39;-9.80;2.72;-3.92;-0.87;33.00
27.44;-20.26;-27.12;-6.32;15.25;28.21
97.47;-30.71;-32.78;8.17;8.82;18.51
53.14;-58.15;-61.75;-6.32;4.79;-23.41
42.69;-83.96;-89.95;-2.29;4.03;-49.99
37.03;-82.33;-83.53;-11.22;-12.85;-63.71
8.82;-75.90;-76.99;-3.16;-22.54;-45.96
-37.90;-62.18;-67.41;-7.19;-16.12;-37.90
-43.45;-54.12;-52.93;0.87;-2.40;-24.18
-45.08;-46.06;-28.75;-4.68;8.82;-5.66
-20.15;-16.23;-2.94;3.38;14.48;-8.93
-13.72;17.64;12.41;2.50;7.19;12.09
-10.45;33.76;23.63;0.87;6.43;12.85
12.09;58.70;60.77;-4.68;5.66;-16.12
18.51;86.90;84.94;5.77;-2.40;35.39
12.85;95.72;88.10;3.38;-6.43;13.61
3.27;82.87;76.88;0.11;-7.30;-13.72
8.82;78.84;76.01;2.50;-11.33;14.48
0.00;62.73;54.23;2.50;-4.03;21.67
4.03;45.85;30.06;3.38;-2.40;7.19
1.63;7.08;7.51;-0.65;-5.66;1.52
3.27;-6.53;-23.09;4.90;-4.03;-14.48
4.79;-42.04;-32.78;-2.29;-6.43;-10.56
-0.76;-57.28;-64.90;-3.16;-2.40;-13.72
-2.40;-79.93;-89.95;-0.65;2.40;-21.02
-8.06;-86.36;-93.98;35.61;1.63;-19.38
-8.06;-81.46;-79.50;1.74;4.79;-13.72
-11.22;-106.50;-78.63;-1.52;10.45;-4.90
-47.48;-64.58;-60.11;0.11;15.25;3.16
-45.08;-45.19;-37.57;25.05;12.09;24.18
-28.21;-16.23;-6.97;-2.29;12.09;28.97
-18.51;22.43;24.50;3.38;16.88;27.33
33.00;40.18;41.38;0.87;-14.48;7.19
29.84;57.06;67.95;2.50;0.76;-14.48
34.63;87.66;80.91;2.50;-5.66;24.94
28.97;99.75;88.10;1.74;-13.72;10.45
37.90;87.66;72.85;-0.65;-17.75;12.85
28.21;78.84;76.01;1.74;-6.43;27.33
-18.51;46.61;57.50;1.74;-7.30;0.76
-81.35;36.15;31.69;-2.29;-3.27;-39.53
-48.35;3.05;4.36;2.50;-6.43;-71.77
-20.15;-30.71;-27.12;-3.16;-8.06;-74.16
-16.88;-43.67;-24.72;-7.19;0.76;-41.93
-4.03;-75.90;-57.72;-2.29;-4.90;-26.57
30.60;-72.64;-72.96;-1.52;-12.85;-7.30
45.08;-92.78;-86.68;-6.32;-10.45;5.55
5.66;-80.69;-79.50;-2.29;4.03;42.69
0.87;-73.40;-61.75;-0.65;10.45;10.45
-5.66;-55.76;-48.90;-3.16;8.82;8.82
-20.15;-31.58;-17.42;0.11;10.45;6.43
15.35;1.52;10.02;-0.65;4.79;-0.87
17.75;31.25;36.59;1.74;4.03;-16.12
12.85;43.34;42.14;26.68;3.16;3.16
26.57;52.27;63.16;3.38;2.40;27.33
56.41;82.11;90.50;5.77;3.16;39.42
50.75;94.09;101.06;-24.83;4.03;27.33
-12.09;74.81;84.07;4.90;-0.87;9.58
-49.99;70.02;80.04;6.53;-4.03;-3.27
-78.19;33.76;67.19;8.93;-10.45;1.52
-24.94;37.79;42.14;3.38;-5.66;5.55
-50.75;5.55;4.36;-3.92;-20.15;-8.93
14.48;-16.99;-16.66;1.74;0.76;-8.93
19.38;-33.98;-39.20;-4.68;4.79;-11.33
4.03;-63.82;-61.75;-2.29;4.79;-8.06
-4.79;-85.49;-93.98;-2.29;7.19;-14.48
-5.66;-86.36;-96.38;-2.29;5.66;-7.30
-20.91;-73.40;-83.53;-2.29;4.79;-11.33
-22.54;-72.64;-84.29;3.38;4.03;-13.72
-41.06;-97.57;-66.54;-4.68;2.40;9.58
15.35;-46.06;-52.93;-4.68;15.25;25.70
108.79;-6.53;-12.63;-3.16;16.88;52.38
16.88;19.17;14.81;2.50;20.91;39.42
-13.72;35.28;30.06;1.74;20.15;38.66
-13.72;51.40;61.53;1.74;18.51;40.29
-48.35;82.87;76.88;0.11;-6.43;27.33
8.82;91.69;76.88;3.38;-20.91;16.12
-23.30;73.18;57.50;0.11;-41.06;-49.99
-28.21;60.33;58.26;-3.92;-46.72;-55.65
28.21;53.03;76.01;-3.16;-55.65;-58.81
-5.66;40.95;26.14;4.90;-33.87;-63.71
26.57;6.32;0.33;1.74;5.66;-22.54
76.56;-7.41;-27.12;-2.29;4.79;8.82
