0.98;0.76;3.05;-3.38;-13.61;2.07
2.61;-20.15;0.65;3.81;4.90;-3.59
-1.42;-38.66;1.42;19.17;8.17;-5.99
0.98;-16.88;3.92;-1.74;11.33;-11.65
-2.18;-20.15;1.42;5.44;7.30;-8.39
-10.24;-21.78;2.29;5.44;9.69;-10.78
26.03;-23.41;-0.98;29.62;10.56;-5.99
-2.18;-14.48;1.42;3.81;16.23;-21.34
1.85;-11.33;3.05;3.05;10.56;5.34
5.01;-3.27;3.92;-26.79;4.90;10.89
5.88;8.06;0.65;19.93;4.90;9.37
3.48;11.33;4.68;6.32;4.90;23.85
3.48;14.48;3.92;3.81;0.11;25.48
4.25;20.15;3.92;5.44;-0.76;-10.78
5.88;34.63;6.32;-1.74;-4.79;10.13
7.51;27.44;7.95;11.11;-11.98;2.83
5.88;19.38;4.68;-1.74;-6.43;5.34
7.51;20.15;-0.11;4.68;-7.19;-1.20
17.97;5.66;1.42;0.65;-5.55;-5.23
-0.54;2.40;1.42;-1.74;-8.82;-10.78
-1.42;-8.06;-0.98;-0.22;-20.91;-5.23
-1.42;-8.06;-0.11;-0.22;2.50;-13.29
-3.81;-17.75;-2.61;-3.38;0.11;-49.44
-11.11;-23.41;11.98;-1.74;0.11;-25.37
-10.24;-21.78;-5.77;2.29;7.30;-18.84
-6.21;-20.15;-4.14;-0.22;7.30;-18.08
-5.44;-21.78;-25.92;3.05;1.63;-26.14
-3.81;-14.48;-2.61;-3.38;4.90;2.07
0.98;-16.12;-3.38;5.44;4.90;10.13
-5.44;-2.40;-0.11;-0.98;5.66;10.89
3.48;4.79;-0.98;8.71;4.90;10.89
7.51;7.30;3.92;6.32;0.87;18.95
11.54;5.66;3.05;8.71;-10.45;28.64
13.07;20.91;-21.89;7.08;1.63;27.01
5.01;24.18;0.65;7.84;0.87;30.27
29.19;25.81;-0.98;-22.76;-2.40;19.82
8.28;26.57;14.37;-1.74;-2.40;13.39
8.28;18.51;17.53;-0.22;-2.40;2.07
4.25;13.72;-0.11;-1.74;14.59;-2.72
2.61;6.43;-0.98;-0.22;4.14;-10.78
-4.57;-5.66;-1.74;-5.77;-2.40;-2.72
-1.42;-12.09;-0.98;1.42;-3.16;-3.59
-3.81;4.03;-3.38;32.02;0.87;-11.65
-7.84;-23.41;-2.61;-2.61;-0.76;-16.44
-7.84;-28.97;-3.38;7.08;0.11;-15.68
-11.87;-8.06;-1.74;-0.22;4.90;-10.78
-11.11;-19.38;-1.74;-0.98;4.90;-11.65
-4.57;-15.35;-11.43;0.65;4.14;-5.23
7.51;-4.03;-0.98;7.08;8.17;10.13
4.25;3.27;-3.38;7.84;-3.16;25.48
3.48;5.66;-0.98;7.08;4.90;53.69
3.48;9.69;0.65;0.65;-3.16;24.61
5.01;17.75;-0.98;8.71;4.90;40.73
7.51;22.54;2.29;6.32;4.14;26.24
5.01;8.06;0.65;-4.25;0.87;7.73
15.57;22.54;4.68;-1.74;-12.85;-22.11
7.51;24.18;-0.98;-0.98;-20.04;-23.74
3.48;14.48;-0.98;-1.74;-13.61;10.13
0.98;6.43;-0.98;-4.25;-6.43;2.07
-27.22;0.76;-0.98;-1.74;-3.92;-22.87
-4.57;-3.27;0.65;-3.38;-5.55;-30.93
-6.21;-22.54;-0.98;-2.61;-13.61;-24.50
-2.18;-19.38;-1.74;-2.61;0.11;-22.87
-11.87;-28.21;-1.74;-6.64;6.53;-10.78
-8.60;-21.78;-3.38;-3.38;0.87;2.07
-2.18;-20.15;-5.01;13.50;5.66;-9.26
-5.44;-33.87;-4.14;-0.22;4.90;3.70
-3.81;-18.51;-0.98;-0.98;7.30;13.39
-0.54;-12.09;-0.98;40.95;3.27;13.39
1.85;-4.03;2.29;-0.22;7.30;10.89
3.48;-11.33;-0.98;1.42;6.53;20.58
4.25;4.79;0.65;0.65;5.66;23.85
2.61;18.51;0.65;27.99;3.27;18.95
7.51;24.18;3.05;0.65;-0.76;18.95
5.88;24.18;0.65;-0.22;-1.52;15.79
6.64;28.97;3.92;3.81;-8.82;50.42
7.51;30.60;3.05;0.65;-0.76;41.60
11.54;19.38;3.92;3.81;-0.76;23.85
3.48;12.85;-0.98;-1.74;-22.54;13.39
0.98;-1.63;-0.98;-1.74;-8.82;3.70
-2.18;-6.43;-0.98;0.65;-21.67;-22.87
-6.21;-8.06;-19.49;-0.98;-6.43;-49.44
-23.96;-22.54;-0.11;-25.16;-6.43;-86.58
-13.50;-21.78;-2.61;-0.98;-2.40;-85.70
-15.14;-46.72;-6.64;-1.74;4.90;-64.03
8.28;-37.03;-2.61;-0.22;4.90;-22.11
-8.60;-21.78;-2.61;-0.22;5.66;6.10
-0.54;-11.33;-18.73;-4.25;4.90;4.46
2.61;-8.06;-0.98;2.29;7.30;17.42
-0.54;-1.63;-0.98;8.71;9.69;22.98
3.48;5.66;3.92;6.32;9.69;29.51
8.28;11.33;-0.11;5.44;4.90;27.88
8.28;19.38;0.65;0.65;2.50;22.22
5.88;21.78;2.29;6.32;-2.40;12.52
3.48;22.54;3.92;0.65;-3.92;14.16
9.04;16.88;7.08;-1.74;-0.76;2.07
3.48;9.69;3.92;36.92;-5.55;6.86
3.48;14.48;1.42;3.05;-5.55;12.52
-44.10;5.66;-0.98;-0.22;-6.43;2.07
-1.42;5.66;-9.04;2.29;1.63;-1.96
8.28;-7.30;-1.74;-5.77;-1.52;-1.96
-22.32;-8.06;-0.98;-13.83;-7.95;-10.78
-3.81;-20.15;-3.38;2.29;2.50;-10.02
-26.35;-48.35;-3.38;3.05;5.66;-18.08
-5.44;-20.91;-2.61;-3.38;4.90;-17.32
-0.54;-19.38;-1.74;3.05;3.27;-15.68
-5.44;-20.91;-2.61;-9.04;-3.92;-14.81
-4.57;-20.15;-0.98;11.11;12.96;1.31
-3.81;-11.33;-3.38;-1.74;4.90;9.37
3.48;4.03;-1.74;3.81;2.50;10.89
3.48;10.45;-21.13;-0.22;-5.55;10.13
5.88;-20.15;-0.98;-0.22;0.87;18.19
-13.50;16.12;-0.98;-1.74;4.14;23.85
5.01;24.18;-1.74;0.65;4.90;51.18
5.88;25.81;4.68;-0.98;3.27;25.48
5.01;18.51;1.42;-1.74;-0.76;15.79
5.01;20.15;23.20;5.44;2.50;38.33
3.48;12.85;17.53;-7.41;0.87;38.33
3.48;12.85;-5.01;0.65;4.14;33.54
0.22;3.27;-0.11;-1.74;0.87;3.70
-1.42;-1.63;-0.98;0.65;-5.55;-57.50
-4.57;-4.03;-0.98;-5.01;-15.25;-43.89
-7.08;-19.38;-0.98;-3.38;-6.43;-51.07
-10.24;-26.57;-2.61;0.65;2.50;-50.31
-13.50;-20.15;-0.98;2.29;-7.19;-41.38
-9.47;-23.41;-4.14;-2.61;4.90;-29.29
-8.60;-21.78;-2.61;-2.61;4.90;-8.39
-1.42;-28.97;-0.98;-0.98;4.90;14.92
-1.42;-9.69;-3.38;-2.61;12.96;25.48
2.61;-1.63;-0.98;-3.38;5.66;27.88
2.61;5.66;-0.98;-3.38;-3.92;14.16
2.61;8.06;-0.98;2.29;-3.92;10.13
10.67;22.54;0.65;3.81;0.11;16.55
10.67;22.54;4.68;7.08;-0.76;20.58
12.31;2.40;7.08;-0.22;-9.58;14.16
10.67;25.81;6.32;-0.22;-8.82;16.55
8.28;26.57;3.05;-0.98;-7.19;-2.72
3.48;16.12;0.65;7.08;-6.43;12.52
-18.30;6.43;3.05;3.81;0.11;2.07
-0.54;0.76;-0.98;-2.61;-3.16;-12.41
-6.21;-29.84;-0.98;-0.98;2.50;-11.65
-0.54;-11.33;-0.11;-0.22;5.66;-9.26
-7.08;-20.15;-0.98;-0.98;4.90;-13.29
-7.84;-24.94;-1.74;1.42;4.90;-14.05
-7.84;-22.54;-2.61;-3.38;6.53;-8.39
-7.84;-27.44;-3.38;-0.22;18.62;-13.29
-8.60;-21.78;-5.01;16.77;4.90;-11.65
-3.81;-21.78;-0.98;4.68;4.90;-6.75
-0.54;-12.09;-2.61;0.65;3.27;1.31
27.66;24.18;-0.98;5.44;-3.92;16.55
0.22;1.63;-0.98;8.71;0.87;10.13
3.48;5.66;2.29;19.17;-20.04;10.13
5.01;23.41;-0.11;5.44;2.50;16.55
4.25;23.41;3.92;7.08;-0.76;17.42
7.51;19.38;1.42;-0.98;-3.92;25.48
2.61;17.75;0.65;-2.61;-3.16;2.83
5.88;39.53;7.08;0.65;-7.19;2.83
7.51;14.48;4.68;0.65;-5.55;2.07
1.85;8.06;-13.83;-5.01;-5.55;2.07
1.85;3.27;7.08;-0.22;-4.79;-8.39
-3.05;-5.66;-15.46;-2.61;4.14;-34.19
2.61;-11.33;-0.98;0.65;-7.19;-24.50
0.22;-15.35;-1.74;1.42;4.90;-21.34
-0.54;-20.15;-19.49;0.65;4.90;-16.44
-3.81;-20.15;-3.38;2.29;6.53;0.44
-2.18;-17.75;-0.98;-0.98;25.81;-1.96
-6.21;-20.15;-3.38;-1.74;3.27;-2.72
-6.21;-24.18;-0.98;2.29;0.87;-6.75
-0.54;-9.69;-0.98;-2.61;0.11;2.07
26.79;0.00;-1.74;5.44;4.90;14.92
1.85;5.66;-0.98;6.32;4.90;15.79
7.51;8.82;1.42;7.08;4.90;14.16
5.88;18.51;1.42;3.05;-5.55;14.16
11.54;14.48;2.29;3.05;13.72;14.16
5.88;20.15;1.42;7.84;0.87;14.92
10.67;16.88;3.05;0.65;-0.76;16.55
4.25;22.54;-0.11;0.65;0.11;4.46
3.48;11.33;4.68;3.81;2.50;9.37
2.61;6.43;1.42;3.81;0.87;6.10
-7.84;0.00;-13.07;2.29;4.14;16.55
-7.84;-2.40;-0.98;-1.74;4.90;0.44
1.85;-8.82;-0.98;-0.22;1.63;-5.99
0.98;-15.35;-0.98;5.44;16.23;-0.33
-7.84;-20.15;-5.77;0.65;5.66;2.83
-10.24;-24.94;-2.61;-0.22;8.17;1.31
-12.63;-20.91;7.95;4.68;0.87;-34.96
-11.11;-22.54;-5.01;-1.74;-3.16;-37.35
-7.84;-11.33;-4.14;-4.25;-6.43;-34.19
0.98;-9.69;-2.61;2.29;0.11;-23.74
1.85;-1.63;-0.98;-2.61;5.66;2.07
17.97;3.27;12.74;3.81;4.90;9.37
5.88;5.66;-0.11;2.29;4.90;17.42
12.31;19.38;-9.80;-1.74;-3.92;19.82
10.67;21.78;-0.98;3.81;-3.16;27.88
-7.84;27.44;3.92;15.90;26.68;23.85
5.88;17.75;2.29;2.29;2.50;26.24
4.25;20.15;36.05;-0.98;-2.40;52.05
3.48;11.33;-1.74;-0.22;-4.79;12.52
3.48;17.75;-0.98;1.42;-7.19;17.42
2.61;-2.40;24.83;-1.74;-8.82;15.79
-1.42;-8.82;-1.74;9.47;-19.28;0.44
-0.54;-11.33;-0.98;-0.98;0.87;-26.14
-5.44;-20.91;10.35;9.47;6.53;-53.47
-6.21;-17.75;-2.61;-0.22;8.17;-60.00
-4.57;-20.15;-2.61;-2.61;9.69;-62.40
-4.57;-24.18;-13.83;0.65;5.66;-15.68
-7.84;-22.54;-5.77;0.65;5.66;-22.87
-4.57;-17.75;-2.61;1.42;8.93;-10.02
-3.81;-6.43;-1.74;0.65;8.93;17.42
0.98;0.76;-2.61;2.29;7.30;13.39
5.01;9.69;-0.98;3.05;6.53;4.46
12.31;11.33;1.42;-0.22;4.90;0.44
15.57;24.18;-0.11;2.29;-9.58;24.61
4.25;22.54;1.42;-1.74;-8.82;27.88
5.88;20.15;1.42;-0.98;-24.94;27.88
4.25;14.48;-0.11;-3.38;-11.98;27.01
4.25;17.75;4.68;-1.74;-7.19;28.64
5.88;16.88;2.29;-10.67;-7.19;-22.87
2.61;9.69;3.92;12.74;-3.16;-12.41
-3.81;1.63;7.95;-1.74;-0.76;-15.68
-0.54;-7.30;0.65;0.65;4.90;-5.99
-0.54;-8.06;-0.98;-1.74;8.93;-5.99
-9.47;-20.15;-0.98;3.05;7.30;-10.78
-7.84;-20.15;-3.38;1.42;4.90;-9.26
-18.30;-18.51;-0.98;0.65;8.93;-3.59
-9.47;-19.38;-4.14;0.65;12.96;-10.02
-5.44;-20.91;-3.38;0.65;7.30;-5.99
-3.81;-15.35;-0.98;11.11;12.20;-2.72
3.48;-7.30;-0.98;3.05;5.66;6.10
4.25;6.43;-0.98;2.29;4.90;12.52
7.51;5.66;-0.98;6.32;0.87;9.37
5.01;-17.75;-0.11;-2.61;0.11;4.46
5.01;22.54;-0.98;-0.22;-2.40;5.34
8.28;22.54;3.92;3.81;-2.40;6.86
5.88;26.57;-19.49;2.29;-7.19;6.10
-22.32;19.38;7.95;-2.61;-10.45;17.42
6.64;24.18;2.29;0.65;-4.79;15.79
3.48;12.09;-24.28;-0.22;0.87;28.64
1.85;5.66;-0.98;-4.25;-0.76;9.37
-9.47;-2.40;-0.98;0.65;3.27;-10.78
-3.81;-1.63;-0.98;-3.38;-0.76;-16.44
4.25;-7.30;-0.98;9.47;-3.92;-8.39
3.48;-13.72;16.77;0.65;4.90;0.44
3.48;-20.15;-0.98;20.80;2.50;-12.41
5.01;-20.15;-1.74;0.65;-2.40;-22.11
-9.47;-20.15;-2.61;20.80;-9.58;-34.96
-8.60;-22.54;-1.74;-3.38;-0.76;-36.59
-3.81;-17.75;-3.38;-0.22;2.50;-24.50
3.48;-19.38;-0.98;3.05;4.90;2.07
-5.44;-7.30;-0.98;-1.74;4.90;23.85
-2.18;7.30;-17.86;6.32;8.17;26.24
3.48;13.72;2.29;-0.22;5.66;25.48
7.51;17.75;4.68;-0.98;2.50;43.12
3.48;42.69;0.65;5.44;15.35;7.73
3.48;28.97;6.32;-26.79;0.87;6.10
6.64;22.54;0.65;3.05;-19.28;-10.02
2.61;18.51;-0.11;-4.25;-17.64;2.07
-9.47;16.88;-0.11;0.65;-7.19;6.10
1.85;-14.48;3.05;0.65;2.50;3.70
0.98;-1.63;-3.38;2.29;2.50;0.44
0.98;-7.30;1.42;-3.38;-0.76;-5.23
-2.18;-9.69;-0.98;15.14;4.14;-10.78
-4.57;-12.09;-4.14;-4.25;4.14;-18.84
-7.08;-27.44;-0.98;3.05;4.14;-15.68
-6.21;-20.15;-3.38;-1.74;4.90;-22.11
-8.60;-20.15;-1.74;3.05;4.90;22.98
-6.21;-19.38;-1.74;11.11;13.72;-5.23
-0.54;-12.85;-0.98;-17.10;4.90;-1.20
-7.08;-12.85;-1.74;3.81;7.30;5.34
-0.54;-6.43;-0.98;-0.22;4.90;9.37
3.48;4.03;-0.98;0.65;3.27;11.76
1.85;5.66;3.05;3.05;4.14;17.42
3.48;16.88;12.74;0.65;4.14;14.92
9.04;28.21;6.32;-0.22;0.87;17.42
11.54;28.97;6.32;1.42;-7.19;3.70
7.51;26.57;1.42;-0.98;-3.16;18.95
8.28;41.06;1.42;-1.74;-8.82;4.46
8.28;11.33;3.05;2.29;-6.43;5.34
3.48;17.75;2.29;-0.22;-10.45;-22.11
-1.42;1.63;-0.98;-2.61;-7.19;-8.39
2.61;-4.79;-0.98;-0.98;-2.40;-2.72
-1.42;-8.82;-0.98;-4.25;4.90;-10.02
-3.05;-10.45;-0.98;0.65;3.27;-11.65
-12.63;-24.94;-21.13;-0.22;4.14;-12.41
-15.14;-27.44;-1.74;1.42;5.66;-12.41
-32.78;-17.75;-0.98;-1.74;9.69;-14.81
-3.81;-21.78;-0.98;0.65;4.90;-21.34
-7.84;-19.38;4.68;-1.74;4.14;-8.39
-2.18;-9.69;-0.98;-1.74;5.66;9.37
2.61;-0.76;-0.98;3.05;4.90;18.95
9.04;5.66;0.65;0.65;4.90;1.31
8.28;14.48;3.05;2.29;2.50;9.37
10.67;19.38;16.77;2.29;4.14;23.85
4.25;23.41;-0.11;3.81;1.63;-0.33
5.01;25.81;3.05;2.29;0.87;14.16
2.61;24.18;4.68;-1.74;-3.16;-5.23
3.48;46.72;-0.11;-30.82;-9.58;-10.78
1.85;-17.75;7.08;-0.98;-7.95;-8.39
-0.54;8.06;-0.11;3.81;-5.55;-8.39
-0.54;18.51;-0.11;-26.79;-3.92;-5.23
-7.84;-4.03;6.32;-1.74;-2.40;-2.72
-5.44;-6.43;-0.98;-0.22;-3.16;-2.72
-32.78;-20.15;-0.98;-2.61;4.90;-6.75
-9.47;-21.78;-0.11;0.65;8.93;-5.99
6.64;-21.78;-3.38;2.29;12.96;-5.23
9.04;-17.75;-1.74;11.87;9.69;-10.78
-3.81;-45.08;-4.14;3.81;6.53;1.31
-35.17;-20.15;-3.38;-0.22;4.90;-0.33
-9.47;-8.82;-12.20;3.81;-5.55;2.07
1.85;-8.06;-0.98;5.44;-7.95;18.19
7.51;5.66;4.68;7.84;-3.16;13.39
16.33;42.69;7.95;-3.38;0.87;12.52
7.51;16.12;3.05;-1.74;-5.55;4.46
8.28;21.78;2.29;2.29;-6.43;6.10
8.28;1.63;7.08;3.05;-11.98;10.89
8.28;22.54;1.42;-1.74;-3.92;10.89
10.67;20.15;7.95;7.84;-3.16;3.70
11.54;12.85;6.32;0.65;-11.22;2.07
13.07;8.06;1.42;-1.74;-3.16;2.07
-1.42;3.27;0.65;-1.74;-6.43;2.07
3.48;-3.27;0.65;15.90;-3.92;6.86
-4.57;-12.09;-0.98;3.81;-3.16;14.92
-11.11;-20.15;-0.98;3.05;7.30;-20.47
-9.47;-20.15;24.83;2.29;5.66;-37.35
-7.08;-21.78;-8.17;5.44;12.96;-27.77
-7.08;-22.54;-0.11;9.47;8.93;0.44
-8.60;-20.91;-0.98;7.08;7.30;6.10
1.85;-15.35;-0.98;3.81;4.90;5.34
1.85;-8.06;-0.11;0.65;9.69;15.79
1.85;1.63;-0.98;-0.22;6.53;27.88
3.48;3.27;-0.98;1.42;19.38;25.48
4.25;14.48;-0.11;7.84;4.90;0.44
3.48;5.66;-0.11;3.81;4.90;-23.74
7.51;-1.63;4.68;8.71;2.50;-31.80
15.57;25.81;3.92;1.42;-6.43;-49.44
5.88;19.38;7.08;-1.74;-12.85;-31.80
-26.35;18.51;5.44;0.65;-19.28;14.16
3.48;18.51;3.92;-2.61;0.87;25.48
0.98;10.45;3.05;3.81;-16.01;6.86
0.98;4.79;-0.98;-3.38;-47.48;-3.59
-7.84;-6.43;10.35;3.81;-12.85;-1.20
-7.84;-8.06;-21.13;3.05;0.87;-8.39
-7.08;-20.15;-0.98;-0.98;4.90;-0.33
-11.87;-17.75;-3.38;3.81;4.90;-10.02
-9.47;-20.15;-5.01;0.65;4.90;-0.33
-7.08;-14.48;-3.38;5.44;4.90;0.44
-5.44;-23.41;-1.74;3.81;10.56;2.07
-1.42;-12.09;-0.98;0.65;4.90;10.13
1.85;-8.06;0.65;0.65;8.93;13.39
11.54;0.76;-0.98;11.87;5.66;16.55
29.19;6.43;6.32;7.08;15.35;13.39
-31.15;9.69;1.42;-0.98;4.90;-1.96
29.19;18.51;3.92;5.44;-0.76;9.37
9.04;41.93;1.42;3.81;4.90;16.55
3.48;27.44;6.32;-0.22;-3.16;13.39
4.25;16.88;3.05;2.29;-10.45;-5.99
3.48;17.75;-0.98;2.29;-6.43;22.22
5.01;13.72;-0.98;-0.98;-24.07;-3.59
3.48;7.30;7.95;-0.22;2.50;-23.74
0.98;-7.30;-0.98;-1.74;0.11;-2.72
-2.18;-15.35;0.65;1.42;10.56;-5.23
1.85;-8.82;-0.98;2.29;4.90;-8.39
-7.84;-20.15;-0.98;-0.22;4.90;-8.39
-19.93;-20.15;-3.38;-5.77;6.53;-3.59
-9.47;-20.91;-5.01;-3.38;8.17;2.07
-5.44;-20.15;-5.01;-1.74;0.11;-8.39
5.01;-23.41;-2.61;26.35;2.50;-11.65
2.61;-20.15;-1.74;26.35;0.11;-13.29
0.98;18.51;-0.98;-1.74;-3.92;-2.72
3.48;1.63;-0.98;2.29;3.27;9.37
3.48;5.66;0.65;0.65;-8.82;-1.96
2.61;7.30;-0.98;-0.98;-9.58;25.48
4.25;11.33;3.05;5.44;-3.16;20.58
7.51;28.97;3.05;26.35;2.50;19.82
13.94;28.97;4.68;2.29;-3.16;13.39
3.48;11.33;1.42;0.65;-0.76;27.88
4.25;24.18;4.68;6.32;-7.95;23.85
5.01;10.45;3.05;-0.98;-3.92;14.92
-3.81;11.33;1.42;-9.04;4.14;15.79
-1.42;0.00;-0.11;-1.74;1.63;4.46
-1.42;-3.27;0.65;7.08;21.78;-8.39
1.85;-5.66;-5.01;2.29;4.90;-24.50
-3.05;-17.75;-14.70;-2.61;4.90;-44.65
-11.87;-9.69;-0.98;-4.25;4.14;-28.53
-10.24;-22.54;-0.98;-2.61;4.90;-23.74
-11.11;-24.94;-5.77;-0.98;2.50;-9.26
-13.50;-18.51;-1.74;-2.61;-13.61;2.07
0.98;-12.09;-0.98;-13.83;3.27;10.89
-5.44;-2.40;-1.74;-2.61;4.14;6.10
0.22;-1.63;-0.11;1.42;-0.76;27.88
2.61;8.06;3.92;2.29;2.50;14.92
0.98;11.33;-0.98;26.35;0.87;17.42
4.25;12.09;3.05;0.65;0.11;28.64
4.25;23.41;3.92;5.44;0.11;30.27
3.48;24.18;2.29;-0.22;0.11;32.67
7.51;22.54;3.05;3.05;0.11;14.16
11.54;20.91;7.08;-1.74;-0.76;6.10
7.51;-2.40;-0.98;10.35;0.87;-3.59
1.85;8.06;-0.11;0.65;0.87;-23.74
-2.18;2.40;3.92;-1.74;-6.43;-25.37
2.61;-7.30;-0.98;0.65;-3.16;-14.05
-16.66;-6.43;-5.77;3.05;4.90;-9.26
-26.35;-25.81;-0.98;-3.38;7.30;-16.44
-5.44;-20.15;-0.98;0.65;4.90;-8.39
-7.08;-28.21;-0.98;-0.98;4.90;-12.41
-11.87;-20.91;-1.74;-4.25;-11.98;-36.59
-8.60;-20.15;-2.61;2.29;0.87;-25.37
0.22;-12.09;-5.01;3.05;4.90;19.82
1.85;-14.48;-0.98;6.32;10.56;10.89
4.25;-4.79;1.42;4.68;5.66;52.05
8.28;35.50;3.92;7.84;18.62;27.88
3.48;3.27;0.65;-1.74;4.90;23.85
17.97;14.48;-0.98;1.42;0.87;27.88
12.31;14.48;0.65;6.32;10.56;23.85
9.04;20.15;7.95;-0.98;4.90;22.98
8.28;20.91;0.65;1.42;-3.92;2.83
-0.54;24.18;20.80;2.29;-9.58;-5.23
2.61;5.66;-0.11;-14.70;-3.16;-3.59
1.85;6.43;2.29;0.65;-2.40;-2.72
1.85;3.27;30.49;-1.74;-2.40;-7.62
0.98;-6.43;-26.79;-2.61;-2.40;-6.75
4.25;-18.51;2.29;-29.19;-3.16;-11.65
1.85;-12.85;-4.14;0.65;-0.76;-14.81
-3.81;-20.15;-1.74;0.65;4.90;-16.44
13.94;-23.41;-3.38;11.11;14.59;-11.65
-10.24;-21.78;-5.01;-0.98;1.63;-12.41
-8.60;-14.48;-0.98;-0.98;4.90;-10.02
-3.81;-12.85;-0.98;-29.19;4.14;0.44
3.48;-7.30;-1.74;-1.74;5.66;1.31
-0.54;-4.79;-0.98;0.65;4.90;6.86
3.48;3.27;-12.20;0.65;2.50;-14.81
0.98;9.69;-0.98;-0.98;4.14;9.37
13.94;12.85;0.65;-0.98;3.27;27.88
15.57;24.18;2.29;2.29;2.50;13.39
-16.66;17.75;4.68;-13.83;15.35;23.85
16.33;22.54;4.68;0.65;-2.40;16.55
3.48;24.18;-0.98;6.32;2.50;25.48
1.85;16.12;1.42;8.71;-3.92;2.83
7.51;5.66;2.29;-0.22;-0.76;-1.20
3.48;-4.79;-3.38;3.05;-6.43;2.07
-3.81;-7.30;-1.74;-25.92;-22.54;-10.78
-4.57;-14.48;-0.98;-0.22;-31.36;-36.59
-3.81;-19.38;-3.38;-0.98;-20.91;-42.25
-15.90;-20.91;-5.77;-1.74;-11.98;-32.56
-12.63;-58.81;-0.98;2.29;-2.40;-22.87
-9.47;-20.15;-1.74;-7.41;13.72;-10.78
-2.18;-28.97;-5.01;-1.74;16.99;-12.41
-24.72;-16.12;-1.74;3.05;9.69;-0.33
3.48;-12.09;28.86;-1.74;13.72;16.55
5.88;1.63;16.01;3.81;11.33;36.70
3.48;8.06;-0.11;1.42;23.41;35.07
5.88;12.85;1.42;3.05;6.53;49.66
5.01;14.48;9.47;2.29;2.50;30.27
5.88;24.18;0.65;0.65;-13.61;14.16
3.48;21.78;4.68;-1.74;-11.98;35.07
7.51;26.57;4.68;-0.22;-2.40;2.07
9.04;25.81;-0.98;6.32;0.11;-10.78
2.61;20.15;6.32;-0.98;-6.43;-18.84
3.48;7.30;-0.11;3.81;-13.61;-11.65
-4.57;1.63;-0.98;3.81;4.14;33.54
-1.42;-6.43;4.68;3.81;4.14;28.64
-3.81;-6.43;-3.38;-0.98;2.50;27.88
15.57;-13.72;-0.98;1.42;5.66;27.88
-7.08;-19.38;-2.61;-1.74;8.17;12.52
-5.44;-24.18;-5.77;-5.77;20.15;-22.11
-1.42;-20.15;-3.38;0.65;7.30;-51.07
-11.11;-21.78;-5.77;-33.21;10.56;-80.15
-7.84;-23.41;-1.74;-31.58;-5.55;-76.12
-8.60;-11.33;-0.98;-0.22;-14.48;-70.46
1.85;17.75;0.65;1.42;-4.79;-13.29
3.48;5.66;-3.38;-1.74;-10.45;17.42
7.51;8.06;9.47;0.65;0.87;27.88
15.57;20.15;-0.98;1.42;1.63;27.01
15.57;19.38;-0.98;7.08;0.87;27.01
12.31;20.91;4.68;2.29;-2.40;31.04
10.67;41.93;1.42;3.05;0.11;28.64
12.31;20.91;0.65;-2.61;3.27;18.95
29.19;14.48;6.32;-0.98;4.14;2.83
4.25;9.69;3.05;2.29;-6.43;0.44
0.98;4.03;-0.98;-0.98;-3.92;-16.44
-6.21;-8.06;-0.98;0.65;3.27;-9.26
-1.42;-12.09;1.42;0.65;4.90;-0.33
-8.60;-15.35;-0.98;-5.77;2.50;-10.78
-9.47;-20.15;-1.74;-2.61;-13.61;-23.74
-12.63;-20.15;-0.98;-20.36;-4.79;-9.26
-9.47;-16.88;-5.77;-0.22;4.90;-0.33
-6.21;-21.78;-5.77;0.65;4.90;-5.99
-1.42;-15.35;-0.98;3.05;12.20;4.46
-1.42;-15.35;-0.98;15.90;30.71;13.39
2.61;-27.44;-0.98;-1.74;8.93;10.13
3.48;3.27;-5.01;3.05;7.30;7.73
5.88;12.85;1.42;0.65;2.50;14.16
5.01;12.85;-8.17;-0.98;0.87;14.92
4.25;20.91;1.42;3.05;0.87;17.42
4.25;24.18;0.65;7.08;-0.76;12.52
-16.66;23.41;3.92;-0.22;-3.16;10.89
-0.54;20.15;3.05;2.29;-3.92;13.39
7.51;17.75;0.65;2.29;-3.92;-2.72
1.85;9.69;3.92;-0.22;-2.40;1.31
0.22;1.63;3.05;-1.74;-2.40;-13.29
-7.84;-6.43;-0.11;0.65;-5.55;-40.62
-4.57;-8.06;-0.98;23.96;2.50;-11.65
-9.47;-17.75;-0.98;-0.98;19.38;-19.71
-7.84;6.43;-4.14;6.32;4.90;-17.32
-5.44;-20.15;-1.74;-0.98;5.66;14.16
-0.54;-20.15;-2.61;0.65;5.66;6.86
-0.54;-14.48;-0.98;6.32;4.90;-7.62
4.25;-20.15;-0.98;-1.74;1.63;2.07
2.61;-14.48;11.98;-0.98;4.14;4.46
-0.54;-7.30;-0.98;0.65;-6.43;7.73
-0.54;4.79;-0.98;1.42;4.14;6.86
3.48;33.87;3.05;-9.04;2.50;23.85
9.04;23.41;6.32;3.81;0.11;25.48
5.01;13.72;20.04;3.81;0.11;13.39
9.04;20.91;3.05;3.05;4.14;6.10
7.51;20.91;-0.11;-0.22;-2.40;4.46
10.67;18.51;6.32;7.08;-5.55;6.86
5.01;19.38;4.68;-0.22;-3.92;25.48
3.48;16.12;3.92;-0.98;-2.40;-14.05
-1.42;4.79;-0.98;0.65;4.14;-1.20
-4.57;-7.30;-1.74;-0.22;-2.40;-10.02
-7.84;-12.09;-0.98;-4.25;3.27;-19.71
-17.53;-20.91;-1.74;-4.25;4.14;-18.08
-11.87;-19.38;-5.77;0.65;2.50;-23.74
-7.08;-20.15;-5.01;11.11;-5.55;-31.80
-7.08;-20.15;-1.74;-0.22;-9.58;-9.26
-7.08;-21.78;-2.61;-9.04;-3.92;-5.23
-16.66;-11.33;-1.74;-2.61;3.27;2.07
-3.81;-8.06;-3.38;-4.25;9.69;2.83
-1.42;1.63;-0.11;2.29;4.90;10.13
2.61;10.45;-0.98;2.29;4.14;7.73
3.48;10.45;-0.11;-0.98;0.87;14.16
6.64;17.75;5.44;5.44;2.50;25.48
9.04;40.29;7.08;-0.22;0.11;22.22
14.70;26.57;20.80;3.05;-1.52;16.55
6.64;20.91;7.08;5.44;-4.79;10.13
7.51;21.78;4.68;3.81;-9.58;4.46
4.25;11.33;-21.13;0.65;-7.19;-30.93
5.01;5.66;0.65;2.29;0.11;10.13
9.04;-3.27;1.42;1.42;4.90;6.10
5.88;-4.79;3.92;3.81;3.27;-11.65
-3.81;-9.69;-0.98;-0.98;-11.98;1.31
-8.60;-21.78;-0.98;-5.77;11.33;0.44
-8.60;-51.51;-1.74;0.65;6.53;0.44
-5.44;-19.38;-0.98;2.29;8.93;-18.84
4.25;-17.75;-0.11;8.71;9.69;-24.50
2.61;-20.15;-5.77;3.05;4.90;-16.44
-5.44;-14.48;-2.61;25.59;-4.79;-23.74
-11.11;-7.30;-0.11;0.65;0.11;-8.39
-3.81;4.03;-0.98;-2.61;-6.43;-5.99
-2.18;-20.15;0.65;9.47;-20.04;-1.96
-11.11;11.33;-0.11;3.05;-3.92;10.89
5.01;14.48;3.05;-0.98;-1.52;14.16
7.51;24.18;4.68;-0.98;1.63;13.39
8.28;28.97;3.92;0.65;1.63;18.95
4.25;23.41;3.05;23.96;-6.43;1.31
10.67;23.41;3.05;-5.77;-6.43;-5.99
3.48;19.38;-0.11;-1.74;4.90;-1.96
1.85;8.06;-3.38;-0.22;5.66;9.37
1.85;10.45;-0.98;0.65;6.53;0.44
-2.18;-7.30;-1.74;-1.74;12.20;-6.75
-7.08;-7.30;-1.74;0.65;5.66;-10.02
-7.08;-20.15;-1.74;7.08;2.50;1.31
-3.81;-20.91;-2.61;-0.22;4.90;3.70
-4.57;-28.97;-0.98;-18.73;-2.40;0.44
1.85;-24.94;-0.98;0.65;-3.16;4.46
-4.57;-22.54;-0.98;3.05;4.90;1.31
-7.84;-38.66;-2.61;2.29;8.93;2.83
-7.08;-9.69;-0.11;-26.79;4.90;27.88
-0.54;0.00;2.29;0.65;4.90;16.55
2.61;3.27;0.65;3.05;5.66;29.51
5.88;5.66;3.05;-0.22;0.87;23.85
7.51;14.48;3.92;-1.74;-20.91;12.52
11.54;22.54;3.05;-0.22;-8.82;-0.33
9.04;25.81;7.95;5.44;-3.16;-39.86
-7.08;23.41;3.05;3.05;-6.43;-56.74
4.25;15.35;3.05;1.42;-7.95;-49.44
3.48;20.91;0.65;-0.22;-8.82;-47.92
3.48;9.69;-0.98;-10.67;-6.43;2.07
1.85;-15.35;1.42;-1.74;-0.76;6.10
-0.54;26.57;0.65;-14.70;5.66;6.10
-5.44;-18.51;-1.74;0.65;3.27;2.83
-2.18;-20.15;-2.61;3.81;5.66;2.83
-9.47;-22.54;-3.38;0.65;5.66;-10.78
-9.47;-45.96;-0.98;-1.74;4.90;-1.96
-10.24;-20.15;-1.74;0.65;4.90;-1.20
-5.44;-3.27;-0.98;0.65;2.50;2.83
-5.44;-12.85;-0.98;-0.22;4.90;4.46
-3.81;-10.45;-0.98;2.29;4.90;10.13
2.61;-4.79;-0.98;-1.74;4.90;15.79
-2.18;9.69;-0.98;-1.74;3.27;17.42
3.48;9.69;2.29;2.29;4.90;20.58
3.48;19.38;-0.98;7.08;4.90;26.24
12.31;22.54;1.42;0.65;0.87;7.73
11.54;24.18;3.05;-3.38;-6.43;-3.59
7.51;14.48;4.68;-0.98;-5.55;2.07
3.48;16.88;3.92;8.71;-4.79;2.83
5.88;16.88;6.32;-26.79;0.11;-0.33
-0.54;10.45;27.22;5.44;0.87;-1.96
-0.54;3.27;-0.98;-0.22;-0.76;-0.33
-6.21;-6.43;-5.77;-2.61;4.90;2.07
16.33;-8.82;-0.11;0.65;0.11;-10.78
0.22;-24.18;-4.14;-1.74;3.27;-9.26
-5.44;-22.54;-3.38;-1.74;4.90;-11.65
-7.84;-28.97;-3.38;-0.98;4.90;-22.11
-9.47;-20.15;-0.98;5.44;4.90;-18.84
-0.54;-21.78;-1.74;0.65;17.75;-6.75
0.22;-16.12;-0.98;-16.33;-3.16;-12.41
-7.08;-15.35;-3.38;-0.98;-20.91;15.79
3.48;8.06;-0.98;23.96;4.90;27.88
2.61;6.43;-16.23;3.05;7.30;36.70
9.04;5.66;1.42;6.32;-2.40;35.07
7.51;18.51;20.80;7.08;0.87;35.07
42.14;23.41;0.65;7.08;-3.16;27.88
9.04;-8.82;3.05;0.65;-8.82;10.13
4.25;25.81;-0.11;25.59;-21.67;-18.84
-0.54;20.15;0.65;-2.61;-21.67;-34.96
3.48;7.30;-0.11;-2.61;-7.19;-16.44
3.48;11.33;4.68;0.65;-3.16;-23.74
3.48;6.43;0.65;-2.61;2.50;0.44
-7.84;-2.40;-0.98;3.05;3.27;-21.34
-3.81;-14.48;0.65;-1.74;4.90;-5.99
-4.57;-20.15;-0.98;-4.25;10.56;-5.99
-10.24;-20.15;-0.98;-3.38;12.96;1.31
-9.47;-45.96;-1.74;0.65;7.30;-3.59
-5.44;-34.63;-3.38;-3.38;3.27;-6.75
-5.44;-20.15;-5.01;2.29;4.14;-19.71
-3.81;-19.38;-1.74;5.44;8.93;18.95
2.61;-17.75;-0.11;5.44;12.20;9.37
10.67;23.41;-0.11;3.05;5.66;17.42
7.51;11.33;0.65;2.29;6.53;23.85
4.25;5.66;14.37;2.29;4.90;27.01
12.31;19.38;3.05;7.08;0.87;44.76
10.67;25.81;4.68;8.71;5.66;37.57
4.25;33.00;5.44;2.29;6.53;27.88
2.61;20.15;-0.98;-0.22;2.50;2.83
9.04;17.75;3.92;2.29;-12.85;-9.26
5.88;7.30;4.68;-1.74;-9.58;-2.72
2.61;7.30;2.29;2.29;-3.92;6.10
-3.05;2.40;-0.98;3.81;-2.40;-15.68
-5.44;0.76;-0.98;19.17;0.11;-15.68
-6.21;-6.43;-0.98;-2.61;-2.40;-19.71
-3.81;-20.15;-1.74;16.77;2.50;-23.74
-7.84;-24.94;-1.74;-2.61;10.56;-18.08
-18.30;-20.15;-3.38;-26.79;4.90;-10.78
-11.11;-22.54;-25.16;0.65;4.90;-12.41
-7.08;-23.41;-0.98;-0.98;4.90;-13.29
-3.81;-9.69;-0.98;3.81;8.93;-16.44
-1.42;-5.66;0.65;1.42;4.90;5.34
-0.54;-1.63;-0.11;0.65;0.11;10.13
3.48;4.03;0.65;6.32;0.87;19.82
3.48;7.30;3.05;-1.74;-8.82;22.22
-0.54;9.69;2.29;1.42;-21.67;12.52
0.98;13.72;3.92;15.90;-6.43;14.16
5.88;8.06;6.32;6.32;-7.95;13.39
5.88;24.18;3.05;0.65;-7.95;14.16
4.25;17.75;3.92;7.08;3.27;6.86
5.88;22.54;-0.98;7.08;2.50;8.49
-27.99;28.97;1.42;0.65;-20.91;2.07
3.48;-1.63;-0.11;-0.22;4.90;-5.23
2.61;-8.82;2.29;-3.38;-0.76;-10.78
2.61;-8.06;-0.11;0.65;-7.19;-12.41
0.98;8.82;0.65;-2.61;-5.55;-14.81
-6.21;-20.15;-0.98;-0.98;0.87;-14.81
-7.84;-20.91;-2.61;10.35;-2.40;-12.41
-10.24;-25.81;-1.74;23.96;9.69;-10.02
-8.60;-17.75;-0.98;-0.98;2.50;-13.29
-9.47;-9.69;-0.98;0.65;4.90;-10.02
-3.81;-12.85;-9.80;-3.38;4.90;-9.26
-0.54;-1.63;1.42;-1.74;4.90;12.52
3.48;11.33;-0.98;-0.98;8.93;14.16
0.22;6.43;-0.11;2.29;6.53;17.42
5.88;18.51;3.92;2.29;4.14;24.61
10.67;27.44;3.92;5.44;3.27;18.95
17.10;27.44;6.32;0.65;-3.92;18.19
7.51;28.97;1.42;3.05;0.11;17.42
9.04;20.15;-11.43;7.08;-2.40;27.01
5.88;-8.06;-0.98;-1.74;-5.55;13.39
5.88;7.30;1.42;2.29;-3.92;-10.78
0.98;-2.40;1.42;-0.22;-3.16;-23.74
-7.84;-5.66;-2.61;-4.25;0.87;-8.39
-3.81;-12.85;-0.98;-0.22;4.90;-29.29
-9.47;-11.33;-1.74;-1.74;4.90;-15.68
-7.84;-17.75;-0.98;-0.98;8.93;-1.20
-2.18;-37.90;-0.98;0.65;8.17;-5.23
-0.54;-20.15;-0.98;-1.74;8.93;-10.02
-1.42;-17.75;-1.74;-2.61;4.90;-13.29
1.85;-12.09;1.42;5.44;4.14;-0.33
3.48;-7.30;-3.38;6.32;-6.43;-11.65
-7.84;-2.40;-0.98;-15.46;-3.16;7.73
2.61;5.66;0.65;-0.22;25.05;10.89
5.88;9.69;-0.98;3.81;-5.55;2.07
2.61;16.12;-0.11;-1.74;-2.40;12.52
3.48;18.51;-0.98;-0.22;-5.55;10.89
10.67;22.54;7.95;0.65;-3.92;20.58
12.31;20.91;7.95;3.05;-8.82;11.76
5.01;22.54;3.92;-1.74;8.93;13.39
3.48;14.48;3.92;-1.74;2.50;18.19
29.19;11.33;-0.98;-2.61;2.50;6.10
-4.57;5.66;0.65;-1.74;4.14;-1.96
-0.54;-2.40;-0.98;-0.98;6.53;1.31
-5.44;-8.82;-0.98;10.35;4.90;4.46
-1.42;-19.38;-1.74;-2.61;10.56;12.52
-8.60;-22.54;-1.74;-0.98;18.62;2.07
-8.60;-20.15;-1.74;-1.74;23.41;-10.78
-6.21;-20.15;-3.38;2.29;2.50;-9.26
15.57;-20.91;-1.74;-0.98;4.90;-8.39
-2.18;-16.12;-1.74;-1.74;4.90;3.70
-3.81;-10.45;-0.98;3.05;0.87;-13.29
3.48;-8.82;-0.98;8.71;-3.92;-18.08
-0.54;5.66;-26.79;0.65;-4.79;-31.80
0.22;5.66;-0.11;5.44;-5.55;13.39
0.22;19.38;4.68;-1.74;-2.40;22.98
3.48;22.54;-0.98;4.68;4.14;26.24
5.01;25.81;4.68;-6.64;7.30;19.82
16.33;24.18;3.05;-1.74;2.50;3.70
7.51;24.18;-0.98;2.29;-6.43;-13.29
1.85;19.38;24.83;6.32;-8.82;-2.72
44.54;10.45;-0.11;0.65;11.33;-11.65
-24.72;-3.27;-1.74;-13.07;-9.58;-3.59
0.22;-8.06;1.42;-1.74;0.11;2.07
-16.66;-8.06;-1.74;-0.98;0.11;-5.99
-7.84;-17.75;-0.98;-0.22;4.14;-13.29
-15.14;-16.12;-5.01;1.42;4.90;-10.78
-7.08;-20.15;-0.98;24.83;-10.45;-12.41
-4.57;-21.78;0.65;1.42;10.56;-18.84
-7.08;-21.78;-1.74;3.05;8.93;-10.78
-11.11;-19.38;-3.38;2.29;7.30;-18.84
-4.57;-13.72;-0.98;-0.22;0.87;4.46
2.61;-5.66;-11.43;-2.61;4.90;16.55
12.31;4.03;-0.98;1.42;4.14;18.19
12.31;14.48;0.65;2.29;-2.40;15.79
34.85;20.91;2.29;3.05;9.69;17.42
12.31;34.63;6.32;0.65;-0.76;19.82
12.31;26.57;1.42;-2.61;2.50;27.01
5.01;22.54;-0.11;3.81;0.11;19.82
3.48;20.15;3.05;3.05;-5.55;4.46
4.25;14.48;3.05;-2.61;-4.79;9.37
3.48;8.06;-0.98;-1.74;-3.92;14.92
-4.57;5.66;-0.98;-2.61;-5.55;-3.59
0.98;-2.40;2.29;-0.98;1.63;-24.50
-1.42;-6.43;-0.98;-2.61;-11.98;-19.71
-5.44;-19.38;2.29;-0.22;2.50;-18.08
-4.57;-20.15;-3.38;1.42;2.50;-34.19
-8.60;-16.12;-2.61;-25.92;4.90;12.52
-6.21;-18.51;-0.98;0.65;4.90;27.88
-8.60;-19.38;-3.38;1.42;8.17;-12.41
-7.84;-17.75;-0.98;31.25;0.87;18.95
0.98;-9.69;9.47;-0.22;4.14;5.34
0.98;-4.79;-0.98;2.29;4.90;2.07
3.48;8.06;1.42;0.65;4.90;-18.84
33.21;-6.43;3.92;-1.74;1.63;-38.99
4.25;32.23;1.42;3.81;4.90;-47.04
10.67;23.41;4.68;6.32;0.11;-34.96
4.25;27.44;3.05;6.32;0.87;-10.02
2.61;17.75;3.05;-0.98;-28.97;22.22
8.28;20.15;4.68;0.65;-5.55;28.64
7.51;14.48;0.65;2.29;-16.01;7.73
3.48;13.72;3.92;3.05;-7.19;7.73
0.98;2.40;0.65;-0.22;4.14;22.22
-1.42;-3.27;1.42;-4.25;1.63;-3.59
-0.54;-7.30;-1.74;11.11;4.90;-5.23
-7.84;-15.35;-3.38;-0.22;4.90;-12.41
-5.44;-20.91;1.42;-27.55;5.66;-10.78
24.39;-31.47;-2.61;-0.98;4.90;2.07
1.85;-21.78;-1.74;0.65;-7.95;14.16
-7.08;-17.75;-0.98;-2.61;-3.16;-10.78
-11.11;-12.85;-5.01;0.65;4.14;6.10
-2.18;-12.09;-0.98;-2.61;9.69;9.37
-3.81;-3.27;0.65;-0.22;10.56;4.46
-1.42;1.63;-0.98;2.29;8.93;-8.39
-2.18;4.03;1.42;2.29;5.66;1.31
13.94;20.91;0.65;0.65;2.50;-7.62
9.04;17.75;-0.11;-0.98;0.11;23.85
3.48;24.18;3.05;-19.49;-3.92;18.95
3.48;7.30;3.05;6.32;-2.40;16.55
4.25;19.38;6.32;3.05;0.11;14.16
11.54;19.38;3.92;-0.22;-10.45;-3.59
1.85;5.66;3.05;-2.61;-13.61;-3.59
-4.57;0.00;-0.98;2.29;-19.28;-13.29
-1.42;-8.06;4.68;-4.25;-3.16;-5.99
-1.42;-8.06;-0.98;-2.61;-20.91;-9.26
-4.57;-17.75;-1.74;-0.22;4.90;-13.29
-8.60;-20.15;3.05;2.29;3.27;-10.78
3.48;-27.44;-1.74;-0.22;-7.19;2.07
-7.84;-20.91;-5.77;-2.61;4.14;10.89
-5.44;-16.12;-3.38;3.05;3.27;1.31
-7.08;-16.12;-3.38;0.65;-2.40;2.07
-2.18;-11.33;-21.13;-0.98;-2.40;6.10
2.61;-4.03;-0.98;-9.04;4.90;8.49
3.48;1.63;2.29;-1.74;9.69;10.89
5.88;6.43;0.65;7.08;7.30;-1.96
5.88;16.12;-0.11;0.65;0.87;-1.20
5.88;20.15;1.42;5.44;4.14;2.83
9.04;20.91;-3.38;3.05;0.87;31.04
13.07;27.44;6.32;23.96;-3.16;27.01
17.97;27.44;6.32;-1.74;0.87;10.13
11.54;18.51;0.65;3.81;-5.55;-3.59
3.48;7.30;0.65;-1.74;5.66;-0.33
0.98;5.66;1.42;-2.61;-3.16;1.31
-5.44;-7.30;1.42;-1.74;-0.76;-10.02
-4.57;18.51;-0.11;-1.74;-3.92;-7.62
-7.08;12.85;-1.74;-7.41;3.27;-15.68
-3.81;-19.38;-0.98;-0.98;5.66;-18.08
-5.44;-20.15;-0.98;2.29;8.17;-13.29
-6.21;-20.15;-5.01;-6.64;7.30;-11.65
-8.60;-20.15;-11.43;0.65;7.30;0.44
-5.44;-10.45;-1.74;-0.22;4.90;9.37
-6.21;-11.33;1.42;-0.22;17.75;27.88
-3.81;-2.40;0.65;-0.98;0.11;46.39
5.01;4.03;1.42;-1.74;-8.82;-10.78
5.88;6.43;-0.98;3.05;-16.88;-32.56
4.25;14.48;-8.17;2.29;-7.95;0.44
7.51;20.91;3.92;0.65;-8.82;14.16
3.48;20.15;2.29;0.65;0.11;8.49
-0.54;24.94;4.68;-4.25;-17.64;-6.75
21.13;24.18;3.92;-0.22;-2.40;14.16
16.33;20.91;4.68;-0.98;12.96;23.85
3.48;13.72;0.65;-0.98;0.87;6.86
3.48;4.79;-0.11;-1.74;3.27;-6.75
-7.08;-9.69;-0.11;-1.74;0.87;-12.41
1.85;-12.85;-5.77;-0.22;2.50;-12.41
-0.54;-11.33;-2.61;2.29;3.27;-13.29
-7.08;-20.15;-3.38;-0.98;4.90;11.76
-6.21;-24.94;-0.98;2.29;4.14;-11.65
-11.11;-17.75;-3.38;0.65;4.14;-10.02
-8.60;-20.91;-0.98;-1.74;2.50;-6.75
-7.84;-19.38;-0.98;-1.74;2.50;-10.02
1.85;-7.30;-0.98;0.65;-2.40;-1.20
5.88;1.63;1.42;3.05;4.90;12.52
5.88;4.79;0.65;6.32;0.87;7.73
2.61;22.54;0.65;2.29;-6.43;4.46
11.54;17.75;0.65;-1.74;0.87;16.55
7.51;28.21;3.05;3.05;0.11;24.61
5.01;24.18;1.42;-0.98;1.63;22.22
1.85;36.26;1.42;2.29;3.27;5.34
-1.42;19.38;-0.98;3.05;0.87;4.46
2.61;12.85;3.05;36.92;-17.64;-1.96
9.04;8.82;11.98;0.65;-3.92;-10.78
-0.54;1.63;2.29;3.05;-2.40;-11.65
-6.21;-7.30;-0.98;-1.74;-3.92;-10.78
-3.81;-14.48;-1.74;-7.41;-3.16;-21.34
-10.24;-17.75;-0.98;11.11;-2.40;-10.78
-4.57;-30.60;-2.61;-4.25;0.87;-6.75
-5.44;-21.78;-0.98;-0.98;4.90;6.86
4.25;-45.96;-1.74;7.08;4.90;17.42
-9.47;-20.15;-0.98;2.29;16.99;8.49
-5.44;-24.18;-4.14;3.05;6.53;10.89
-1.42;-8.82;-1.74;8.71;-5.55;5.34
-16.66;-5.66;-0.11;3.81;5.66;2.83
3.48;3.27;1.42;5.44;2.50;-10.02
3.48;5.66;-0.98;0.65;12.96;-3.59
5.01;12.85;1.42;0.65;4.14;2.07
13.94;20.91;2.29;-1.74;0.87;4.46
5.88;22.54;3.05;2.29;1.63;-20.47
-1.42;19.38;1.42;-0.22;-6.43;22.22
7.51;17.75;7.08;3.81;-20.04;10.13
3.48;16.12;20.04;1.42;-15.25;13.39
4.25;6.43;-0.11;0.65;-11.98;2.83
3.48;4.03;1.42;0.65;-3.16;1.31
-1.42;-4.79;-5.77;-1.74;3.27;-1.96
-7.84;-8.06;-0.98;1.42;-18.51;-8.39
0.98;-24.18;-0.98;39.31;0.11;-13.29
-4.57;-21.78;-5.01;0.65;5.66;-18.84
-6.21;-20.15;-0.98;-3.38;4.90;-15.68
-8.60;-20.91;-0.98;0.65;10.56;-10.78
13.94;-18.51;-0.98;0.65;15.35;-0.33
-3.81;-12.09;-1.74;2.29;7.30;2.07
1.85;-8.82;-5.01;23.20;0.87;10.89
-12.63;24.18;-0.98;-14.70;7.30;22.22
1.85;3.27;-0.98;2.29;7.30;18.95
0.98;32.23;-0.98;-0.98;4.90;26.24
10.67;15.35;3.05;-0.22;0.87;25.48
9.04;18.51;1.42;0.65;3.27;29.51
5.01;20.91;4.68;3.81;2.50;14.16
6.64;16.88;3.05;0.65;-6.43;0.44
5.01;17.75;3.92;-0.98;-12.85;-9.26
4.25;18.51;0.65;-6.64;-3.92;-13.29
3.48;7.30;-0.98;-1.74;-9.58;-31.80
3.48;3.27;4.68;-0.98;-4.79;-30.93
3.48;-2.40;1.42;-0.98;-1.52;-27.77
0.98;-5.66;-0.11;-13.07;2.50;-15.68
-1.42;-5.66;-0.98;-2.61;3.27;-1.96
3.48;-42.69;-1.74;-0.98;15.35;39.10
3.48;-20.15;-1.74;2.29;10.56;35.94
1.85;-20.15;-3.38;-2.61;1.63;18.95
-4.57;-20.15;-5.01;-0.22;3.27;19.82
-3.81;-18.51;-0.98;-1.74;4.90;12.52
-0.54;-14.48;12.74;-4.25;4.90;13.39
-5.44;1.63;-0.98;0.65;4.90;-35.83
3.48;4.79;-0.98;-0.22;4.14;-51.07
3.48;1.63;-0.11;3.81;-16.01;-62.40
2.61;16.88;-0.11;-1.74;-9.58;-40.62
3.48;17.75;-0.98;0.65;3.27;-0.33
3.48;20.91;-0.98;3.05;-2.40;41.60
10.67;19.38;-0.11;-21.89;-2.40;27.88
3.48;22.54;3.92;3.81;-3.16;26.24
3.48;11.33;1.42;-0.98;-4.79;32.67
4.25;5.66;3.05;-1.74;-7.95;2.07
2.61;0.76;1.42;0.65;-5.55;-8.39
1.85;-3.27;2.29;-1.74;-20.04;-6.75
-6.21;-4.79;-0.98;-1.74;-18.51;-6.75
-10.24;-17.75;-0.98;-1.74;-13.61;-10.78
-3.81;-20.15;-0.98;-1.74;3.27;-26.90
-5.44;-22.54;-0.98;0.65;10.56;-2.72
-5.44;-15.35;-0.98;-0.98;10.56;-2.72
-8.60;-15.35;-3.38;0.65;10.56;6.10
-1.42;-7.30;-0.98;-3.38;13.72;4.46
-17.53;-10.45;0.65;-15.46;9.69;-2.72
3.48;1.63;-0.11;0.65;9.69;7.73
3.48;31.47;0.65;3.05;10.56;12.52
5.01;-14.48;3.05;-0.22;7.30;15.79
7.51;16.88;3.05;5.44;4.90;14.92
15.57;24.18;4.68;-0.22;0.87;14.16
9.04;26.57;9.47;-3.38;4.14;6.10
4.25;23.41;7.08;1.42;4.14;16.55
5.01;16.88;3.05;0.65;-2.40;27.88
2.61;19.38;3.92;1.42;-5.55;27.01
-1.42;12.85;0.65;1.42;0.87;12.52
-0.54;1.63;-0.11;-1.74;0.11;-3.59
-5.44;-2.40;11.11;-2.61;2.50;-11.65
-11.87;-8.82;-0.98;-1.74;-7.19;-36.59
-11.87;-3.27;-0.98;-1.74;-5.55;-48.68
-9.47;-24.94;-0.98;0.65;1.63;-46.28
-13.50;-22.54;-6.64;3.05;1.63;-26.14
-7.08;-18.51;-8.17;2.29;0.87;-47.92
-13.50;-20.15;-2.61;-6.64;1.63;-10.78
-7.84;-14.48;-0.98;0.65;1.63;0.44
-11.11;11.33;-0.98;-15.46;-0.76;2.07
-7.08;-6.43;-0.98;-0.22;2.50;16.55
5.01;5.66;1.42;2.29;0.87;27.01
10.67;14.48;1.42;22.43;2.50;16.55
13.07;31.47;3.92;-14.70;-2.40;19.82
10.67;44.32;0.65;-3.38;-2.40;18.19
11.54;29.84;3.05;-2.61;-5.55;4.46
6.64;21.78;3.05;7.08;-3.92;12.52
1.85;20.15;6.32;21.56;25.81;10.13
7.51;14.48;7.95;3.05;-8.82;2.07
-0.54;5.66;0.65;-1.74;0.11;-0.33
-5.44;1.63;-0.11;2.29;4.14;-9.26
-10.24;-8.82;0.65;6.32;0.87;-10.02
2.61;-6.43;-2.61;-3.38;2.50;-11.65
-3.81;-17.75;-0.98;-0.98;2.50;-44.65
-10.24;-20.15;-3.38;-4.25;7.30;-14.81
-9.47;-24.94;-1.74;-1.74;4.14;-32.56
-1.42;-31.47;-2.61;-0.98;5.66;-10.02
-2.18;-45.96;-0.98;2.29;8.17;-0.33
-8.60;-19.38;-2.61;-25.16;12.20;2.07
-11.87;-9.69;-0.98;3.81;4.90;4.46
3.48;-3.27;-0.98;-0.98;5.66;13.39
6.64;5.66;3.05;2.29;6.53;10.13
4.25;11.33;-0.11;7.08;-11.98;15.79
10.67;11.33;1.42;3.05;-0.76;17.42
10.67;17.75;4.68;0.65;4.14;17.42
9.04;22.54;3.05;-0.22;-0.76;20.58
9.04;19.38;-0.11;3.81;0.87;26.24
4.25;14.48;11.11;-1.74;2.50;27.88
7.51;10.45;0.65;-2.61;-5.55;11.76
3.48;5.66;1.42;-0.98;-6.43;-13.29
-0.54;0.76;-0.98;0.65;-5.55;-50.31
-7.08;-6.43;-0.98;2.29;-3.92;-25.37
-11.11;-12.85;-0.98;-2.61;-6.43;-38.22
-8.60;-19.38;-1.74;-1.74;1.63;-34.19
-10.24;-18.51;-1.74;-1.74;-7.19;-27.77
-9.47;-28.97;-3.38;0.65;0.11;-11.65
-11.87;-20.15;-1.74;-2.61;0.87;-1.96
-7.08;-19.38;-0.98;-1.74;6.53;-1.96
-0.54;-12.85;-0.11;5.44;13.72;-0.33
-3.05;-6.43;-0.98;2.29;11.33;2.07
-0.54;-1.63;-0.11;-0.22;-2.40;13.39
4.25;5.66;-0.11;-0.98;4.90;19.82
9.04;32.23;-0.98;18.40;-3.92;18.19
7.51;14.48;-3.38;2.29;2.50;22.98
13.94;26.57;-0.11;0.65;2.50;22.98
9.04;28.97;3.92;3.81;-12.85;26.24
7.51;-1.63;3.92;-0.22;0.87;17.42
5.88;25.81;1.42;-2.61;-3.16;10.13
8.28;12.85;3.05;-1.74;-16.01;6.10
2.61;11.33;10.35;3.05;-2.40;0.44
-4.57;6.43;0.65;-1.74;2.50;-3.59
-3.81;-33.00;-0.98;-0.98;0.87;-9.26
-5.44;-11.33;-0.98;-25.92;-11.98;-46.28
-4.57;-16.12;-0.98;2.29;-6.43;-44.65
-12.63;-23.41;-5.01;-0.22;4.90;-23.74
-8.60;-20.91;-5.01;-0.98;4.14;-10.02
-6.21;-20.91;-5.01;3.81;4.90;-3.59
-6.21;-17.75;9.47;-1.74;7.30;4.46
0.98;-20.15;-14.70;-1.74;4.14;10.13
-7.84;-8.06;-0.98;8.71;7.30;7.73
-2.18;-3.27;-0.98;-5.77;6.53;1.31
3.48;5.66;-0.98;-3.38;4.90;27.88
0.98;5.66;0.65;5.44;25.05;15.79
4.25;17.75;7.95;0.65;-0.76;35.07
3.48;26.57;3.92;0.65;-9.58;33.54
4.25;26.57;32.89;-2.61;-20.04;23.85
4.25;20.15;3.05;3.05;-15.25;10.13
5.01;13.72;7.95;0.65;-0.76;10.89
3.48;20.15;0.65;1.42;-2.40;-25.37
3.48;11.33;-0.11;1.42;-0.76;-13.29
-0.54;1.63;-2.61;-9.80;0.87;-28.53
-7.08;0.76;-0.98;-3.38;4.14;-23.74
-2.18;-8.06;-0.98;-2.61;4.14;-32.56
-2.18;-20.15;0.65;-2.61;5.66;-12.41
-5.44;-20.15;-3.38;-0.98;4.90;-10.78
-7.08;-53.14;-3.38;6.32;6.53;-10.78
-5.44;-20.91;-2.61;3.81;4.90;-10.02
-3.81;-20.15;-1.74;-0.98;3.27;-1.96
-44.10;-18.51;-1.74;0.65;5.66;2.07
-2.18;-16.88;-0.11;1.42;4.14;5.34
-0.54;-2.40;-1.74;3.81;4.90;14.92
3.48;9.69;-0.11;1.42;5.66;17.42
4.25;8.06;-0.11;36.92;4.90;18.95
3.48;16.12;0.65;0.65;7.30;24.61
7.51;17.75;-3.38;3.81;4.90;14.92
9.04;28.21;8.71;3.05;-0.76;-0.33
3.48;3.27;6.32;-1.74;-3.92;2.83
0.98;19.38;3.92;-0.22;-0.76;10.89
1.85;16.12;0.65;-4.25;-13.61;4.46
2.61;6.43;-0.98;-2.61;-35.39;-10.78
3.48;1.63;-0.11;3.81;-6.43;-8.39
0.22;-7.30;-0.98;1.42;-7.95;-6.75
4.25;-8.06;-11.43;-1.74;-20.04;-8.39
3.48;-18.51;-3.38;-1.74;3.27;-11.65
3.48;-20.91;1.42;-0.22;4.14;-10.78
1.85;-32.23;-3.38;2.29;4.90;-6.75
-8.60;-17.75;-3.38;2.29;7.30;-7.62
-11.11;-20.15;-0.98;-0.98;4.14;-23.74
-3.81;-20.15;-1.74;3.81;-3.16;-22.87
3.48;-9.69;-26.79;2.29;4.90;-5.23
-14.27;-5.66;-0.98;0.65;7.30;16.55
-3.81;4.79;-0.98;3.81;4.90;-5.99
0.98;5.66;0.65;2.29;4.14;15.79
11.54;17.75;-0.98;7.08;2.50;16.55
10.67;25.81;-0.98;-0.22;-3.16;18.95
4.25;24.18;3.92;3.81;-4.79;14.16
7.51;27.44;9.47;6.32;0.11;14.92
7.51;20.91;4.68;2.29;0.11;7.73
3.48;16.88;11.98;0.65;-2.40;-0.33
3.48;3.27;-0.11;-1.74;0.11;-6.75
-1.42;1.63;-0.98;-1.74;0.87;-14.05
1.85;0.76;11.98;3.81;0.87;-15.68
-5.44;-4.79;-1.74;-0.98;4.14;-10.78
11.54;-21.78;-0.11;-0.98;4.14;-10.78
-6.21;-20.15;-13.07;-1.74;2.50;-11.65
-8.60;-22.54;-0.98;-1.74;4.90;-5.99
-10.24;-35.39;-0.98;-4.25;-0.76;-5.99
-11.87;-18.51;-2.61;-5.77;4.90;7.73
-3.81;-15.35;-0.98;0.65;-2.40;12.52
-5.44;-4.03;-0.98;0.65;1.63;10.13
1.85;-32.23;1.42;-0.22;2.50;10.13
4.25;15.35;-0.11;7.08;3.27;43.12
3.48;8.82;-8.17;3.81;6.53;64.14
5.88;17.75;20.80;3.05;1.63;27.01
10.67;27.44;3.05;-2.61;2.50;22.98
5.88;24.18;2.29;0.65;3.27;10.89
4.25;17.75;3.05;3.05;-5.55;-10.02
5.01;16.88;1.42;3.81;-3.16;-19.71
2.61;41.93;3.05;-23.52;-0.76;-47.04
4.25;8.06;4.68;-2.61;-8.82;-49.44
1.85;-2.40;-0.98;-7.41;-20.91;-64.03
-0.54;-6.43;-17.86;-2.61;-9.58;-33.32
-0.54;-7.30;-1.74;-28.42;0.11;-5.23
-8.60;-16.12;-0.11;-1.74;7.30;2.07
-7.84;-19.38;-0.98;2.29;8.93;-0.33
0.98;-12.85;-0.98;-0.98;8.17;-1.20
3.48;-19.38;-4.14;-0.22;5.66;-9.26
-5.44;-19.38;7.08;-0.98;2.50;-0.33
-4.57;-16.12;-0.11;-0.22;2.50;-5.99
-3.81;-14.48;-0.98;5.44;5.66;20.58
-0.54;-4.03;-0.98;3.81;-20.91;35.07
3.48;-20.91;-0.11;3.81;4.90;29.51
2.61;6.43;-0.98;-19.49;2.50;27.01
3.48;16.12;-5.01;7.08;4.14;-6.75
11.54;25.81;3.92;3.81;-2.40;14.16
9.04;22.54;6.32;-1.74;-3.92;3.70
-14.27;21.78;3.92;2.29;-3.16;-0.33
9.04;19.38;3.05;-1.74;-3.16;2.07
3.48;13.72;1.42;-1.74;0.87;-0.33
3.48;8.82;1.42;2.29;4.14;-6.75
0.98;3.27;-0.11;-0.98;0.87;-5.99
-5.44;-1.63;-0.98;-3.38;2.50;-10.78
-1.42;-6.43;-14.70;2.29;1.63;-25.37
-10.24;-17.75;-0.11;-0.98;1.63;-5.23
-8.60;-23.41;-2.61;-0.22;0.87;-8.39
-8.60;-24.94;-0.11;-29.95;-2.40;-14.05
-8.60;-20.91;-0.98;-1.74;4.90;-10.78
-7.08;-16.12;-0.98;0.65;2.50;-13.29
-5.44;-12.09;-6.64;2.29;4.90;-10.78
1.85;-9.69;0.65;-1.74;4.90;6.10
1.85;-5.66;1.42;-0.98;4.90;6.10
1.85;5.66;-0.11;-0.98;4.90;9.37
3.48;16.12;-13.07;3.05;2.50;18.95
7.51;13.72;-0.11;6.32;0.87;-10.02
5.88;19.38;-21.89;4.68;0.87;19.82
5.88;24.18;3.05;3.81;-2.40;24.61
5.01;20.91;3.05;26.35;8.93;12.52
3.48;20.15;2.29;8.71;-7.19;11.76
0.98;16.88;3.92;-6.64;0.87;14.16
-3.05;-20.15;0.65;-3.38;-2.40;2.83
-1.42;6.43;-0.98;-1.74;0.87;-2.72
3.48;4.79;1.42;-0.98;-5.55;-3.59
3.48;-5.66;-24.28;-1.74;4.90;-2.72
-7.84;-17.75;-0.98;-0.98;8.93;-13.29
-7.08;-45.96;-0.98;3.81;8.93;-3.59
-14.27;-27.44;-2.61;0.65;6.53;-1.20
-12.63;-20.15;-1.74;7.08;10.56;11.76
-4.57;-48.35;-0.98;5.44;2.50;2.07
-5.44;-18.51;-1.74;-1.74;-15.25;-24.50
-1.42;-7.30;-0.98;-3.38;-7.95;-14.81
9.04;-1.63;-1.74;-5.01;-8.82;-19.71
11.54;-20.15;-0.98;15.14;-21.67;-38.99
9.04;6.43;-0.98;1.42;-8.82;-24.50
12.31;17.75;-25.92;2.29;0.87;22.22
9.91;16.88;0.65;-0.98;0.87;20.58
12.31;20.15;2.29;2.29;-2.40;26.24
8.28;29.84;2.29;3.05;2.50;23.85
12.31;19.38;4.68;24.83;10.56;19.82
3.48;17.75;2.29;-5.77;3.27;8.49
1.85;9.69;2.29;-3.38;-0.76;-8.39
-5.44;6.43;3.92;-0.22;0.87;-2.72
-5.44;-3.27;0.65;-0.98;-0.76;-6.75
0.98;-7.30;-1.74;-4.25;4.90;-5.99
-3.81;-18.51;-1.74;-2.61;4.90;-10.78
-7.84;-22.54;-3.38;-1.74;4.90;-18.84
-10.24;-22.54;-2.61;-3.38;4.90;-11.65
-8.60;-24.18;-0.11;-2.61;5.66;-8.39
-9.47;-19.38;-3.38;-5.01;8.17;-7.62
-5.44;-12.85;-2.61;1.42;12.20;-1.96
-0.54;-10.45;-1.74;0.65;5.66;3.70
3.48;-7.30;-0.98;2.29;4.90;6.10
3.48;4.79;-0.11;6.32;6.53;6.10
4.25;6.43;1.42;2.29;4.90;6.86
10.67;14.48;1.42;-0.22;3.27;10.89
6.64;22.54;3.92;3.81;4.14;10.89
8.28;20.15;11.11;-1.74;0.11;12.52
3.48;8.06;3.05;-25.16;-5.55;10.89
8.28;32.23;3.92;-0.22;-0.76;6.86
9.04;29.84;1.42;-5.77;-2.40;2.83
4.25;18.51;3.05;3.81;-0.76;2.07
-2.18;4.03;-0.11;8.71;-2.40;-8.39
0.98;-28.21;-1.74;-2.61;1.63;-18.84
1.85;-3.27;-0.98;0.65;4.90;-10.78
-3.81;-12.09;-0.98;-3.38;4.90;-1.20
-5.44;1.63;-1.74;5.44;4.90;2.07
-9.47;-20.15;-0.98;-4.25;4.90;14.16
-8.60;-20.15;-5.01;-19.49;9.69;2.07
-11.11;14.48;-0.98;-5.77;4.90;-1.96
-11.11;-20.15;-0.98;2.29;0.11;-11.65
-5.44;-1.63;-1.74;-4.25;1.63;-10.78
-4.57;-1.63;-0.98;-2.61;-22.54;-37.35
-3.81;3.27;2.29;-0.98;-20.04;-22.87
2.61;4.79;-1.74;3.05;-5.55;2.83
-3.81;8.06;3.92;1.42;1.63;31.91
5.88;8.06;-0.98;-14.70;5.66;27.88
16.33;24.18;4.68;2.29;4.14;29.51
22.00;29.84;3.05;-1.74;2.50;20.58
15.57;24.18;16.01;2.29;-6.43;3.70
5.88;17.75;4.68;-0.98;-5.55;-5.99
5.88;6.43;-0.11;24.83;-2.40;-1.96
5.88;5.66;-0.11;-1.74;2.50;-9.26
0.98;0.00;-3.38;2.29;3.27;-5.99
-3.05;-4.79;24.07;-1.74;2.50;-36.59
-3.81;-18.51;-15.46;0.65;4.90;-5.23
-8.60;-20.91;-0.11;-4.25;5.66;-0.33
-7.08;-23.41;-1.74;-0.98;7.30;-5.99
-11.87;-20.91;-0.98;0.65;4.14;-0.33
-11.87;-19.38;-0.11;-2.61;4.14;-2.72
-2.18;-11.33;-2.61;2.29;4.14;0.44
-7.08;-18.51;-2.61;-0.98;4.14;10.13
-1.42;-6.43;-17.86;-0.98;4.14;11.76
-0.54;5.66;7.08;3.81;-2.40;-10.02
-2.18;7.30;1.42;-3.38;0.87;2.83
5.88;16.88;3.05;3.05;0.11;18.95
10.67;18.51;7.08;3.05;0.87;12.52
9.04;27.44;3.05;1.42;-2.40;17.42
6.64;22.54;6.32;-0.98;-12.85;4.46
5.01;20.15;4.68;-3.38;-5.55;1.31
3.48;11.33;3.05;1.42;-8.82;0.44
-1.42;8.06;-0.98;-0.98;-2.40;-0.33
-8.60;5.66;1.42;1.42;3.27;-38.22
3.48;-16.12;-0.98;-1.74;4.14;-18.08
0.98;-3.27;-0.98;3.05;10.56;-22.11
-11.11;5.66;-0.98;-0.22;3.27;-18.84
-7.84;-24.18;-0.11;-4.25;4.14;-14.81
-4.57;-28.21;-13.07;-1.74;4.90;-10.02
-2.18;-20.91;-5.77;-2.61;2.50;-27.77
-1.42;-21.78;-5.01;0.65;4.14;-5.23
-7.08;-20.15;-2.61;6.32;4.90;8.49
-3.81;-14.48;-3.38;-0.98;15.35;26.24
3.48;-2.40;-1.74;2.29;16.23;28.64
2.61;5.66;-0.98;-0.98;13.72;25.48
2.61;12.85;0.65;5.44;5.66;49.66
3.48;16.88;1.42;3.81;4.90;39.97
3.48;24.18;4.68;10.35;2.50;27.88
3.48;28.97;-0.11;0.65;-2.40;14.16
5.01;19.38;3.92;11.11;-7.95;-5.23
0.98;20.15;0.65;-1.74;-20.04;-34.96
-7.84;18.51;26.46;0.65;-28.97;-62.40
-0.54;5.66;-0.11;-14.70;-20.91;-60.00
3.48;-3.27;0.65;2.29;-10.45;-53.47
-1.42;-24.18;2.29;-2.61;-15.25;-51.07
-0.54;3.27;-0.98;-0.98;-3.16;-18.08
-3.81;-20.15;-3.38;-1.74;0.11;-10.78
-6.21;-21.78;-4.14;-0.22;4.90;-28.53
-10.24;-24.18;9.47;-0.98;-3.92;-3.59
0.22;-23.41;-1.74;0.65;8.17;9.37
-6.21;-20.15;-1.74;6.32;8.93;15.79
2.61;29.84;-1.74;6.32;8.93;20.58
0.98;-9.69;-1.74;0.65;9.69;23.85
1.85;-4.79;-0.98;7.08;10.56;26.24
5.88;6.43;-0.11;3.81;4.90;27.88
2.61;11.33;3.05;3.81;5.66;26.24
9.04;3.27;2.29;-0.22;4.90;27.88
8.28;11.33;1.42;-20.36;0.87;20.58
7.51;27.44;3.92;7.84;-1.52;16.55
8.28;10.45;4.68;-1.74;-2.40;13.39
5.01;20.91;1.42;3.81;-3.92;4.46
4.25;19.38;-0.11;22.43;4.14;2.83
6.64;9.69;0.65;-1.74;8.93;-0.33
-5.44;1.63;-0.98;0.65;0.11;-11.65
-0.54;0.76;-0.98;-0.98;-0.76;-8.39
0.98;-6.43;-0.98;-1.74;4.90;-7.62
-7.08;4.79;-0.11;-12.31;4.14;-18.84
-9.47;-20.15;-3.38;-4.25;-15.25;-15.68
-5.44;-24.18;-5.01;-1.74;4.14;-35.83
-7.84;-22.54;-1.74;-1.74;5.66;-10.78
-5.44;-20.91;-0.11;-0.98;-8.82;-10.02
1.85;-10.45;-2.61;-26.79;2.50;-3.59
-0.54;-37.03;-1.74;2.29;4.90;-1.20
-3.81;-4.79;-0.11;2.29;4.90;2.07
0.98;1.63;-0.98;0.65;3.27;10.13
3.48;9.69;17.53;7.08;4.90;17.42
4.25;20.91;0.65;7.08;0.87;19.82
5.88;24.18;19.17;7.08;-0.76;27.88
-24.72;15.35;3.05;-5.77;3.27;10.89
5.01;18.51;-0.11;0.65;-2.40;14.16
5.01;16.12;4.68;3.05;0.11;27.88
2.61;11.33;3.05;0.65;-3.16;7.73
-1.42;20.91;-0.11;-0.98;-5.55;-1.96
-0.54;5.66;0.65;10.35;-42.69;-35.83
-3.81;-8.82;0.65;-5.01;-10.45;-13.29
-6.21;-37.90;-0.98;0.65;-0.76;-5.23
-0.54;-14.48;-0.98;-0.98;3.27;-14.05
2.61;-20.15;-8.17;-5.01;-2.40;-23.74
-1.42;-20.15;-3.38;-23.52;4.90;-23.74
1.85;-24.18;-2.61;-3.38;8.93;2.07
0.98;-18.51;14.37;-0.98;11.33;-1.96
-1.42;-15.35;-3.38;-3.38;6.53;17.42
-1.42;-18.51;-0.98;-0.98;4.90;2.07
5.01;-2.40;0.65;1.42;4.90;14.16
5.01;7.30;0.65;5.44;3.27;17.42
3.48;-6.43;1.42;29.62;0.11;16.55
8.28;20.15;0.65;-1.74;0.11;18.95
4.25;14.48;3.92;-5.01;-0.76;14.16
4.25;30.60;-0.98;1.42;-3.92;9.37
5.01;27.44;6.32;6.32;-3.92;6.10
2.61;10.45;-0.11;4.68;-5.55;2.07
3.48;16.12;-0.11;-3.38;-7.19;1.31
4.25;13.72;-0.11;19.93;-3.16;-0.33
-0.54;6.43;-0.98;-2.61;-17.64;-9.26
-0.54;-6.43;-0.11;-4.25;0.11;-10.02
-0.54;-9.69;-0.98;-0.98;9.69;-10.78
-4.57;-14.48;-0.98;-2.61;3.27;-10.78
-9.47;-24.18;-1.74;-10.67;0.87;-10.78
-10.24;-21.78;-6.64;0.65;4.90;-1.96
-6.21;-49.99;-2.61;11.11;5.66;-10.02
-5.44;-18.51;0.65;0.65;5.66;-2.72
-4.57;-16.12;-0.11;-1.74;5.66;2.83
3.48;-12.85;0.65;10.35;0.87;2.83
4.25;-20.15;-0.11;-1.74;2.50;2.83
3.48;1.63;-15.46;6.32;0.87;10.89
3.48;4.79;-0.98;0.65;0.11;2.83
5.01;16.88;0.65;0.65;-3.16;22.22
9.04;23.41;11.11;-0.22;16.99;43.12
8.28;25.81;7.08;5.44;-0.76;16.55
11.54;27.44;1.42;-7.41;0.11;13.39
6.64;17.75;1.42;0.65;4.90;-19.71
9.04;18.51;1.42;2.29;4.90;-26.90
3.48;5.66;-0.11;-1.74;4.14;-14.05
1.85;0.76;0.65;21.56;6.53;6.86
-5.44;-7.30;-12.20;-5.77;-10.45;0.44
-9.47;-10.45;-2.61;-2.61;-20.04;-12.41
-8.60;-19.38;-5.01;-0.98;-6.43;-24.50
-7.08;-20.91;-0.98;-0.22;9.69;-18.08
-5.44;-24.94;-8.17;-1.74;3.27;-35.83
-10.24;-22.54;-6.64;8.71;-7.19;-37.35
-9.47;-16.88;-1.74;-4.25;-7.19;-14.05
-5.44;-19.38;-0.98;-33.21;4.14;3.70
3.48;-4.03;-17.86;-0.22;5.66;14.16
5.01;3.27;-0.98;2.29;7.30;44.00
9.04;12.85;7.95;-0.98;4.90;27.01
10.67;13.72;0.65;3.05;4.90;27.01
9.04;19.38;3.05;-14.70;4.14;23.85
7.51;24.18;-0.11;3.05;0.87;24.61
4.25;20.91;3.05;0.65;-3.16;15.79
5.01;6.43;1.42;36.92;1.63;10.13
3.48;18.51;1.42;5.44;0.87;6.10
4.25;11.33;3.92;4.68;0.87;6.10
3.48;16.88;2.29;-2.61;-2.40;-9.26
-5.44;-4.03;3.05;0.65;0.11;-14.81
-5.44;-7.30;-0.98;3.05;-3.92;-19.71
-8.60;-10.45;-0.98;-0.22;0.87;-14.81
-11.87;-20.15;-0.98;-2.61;4.14;-18.08
-9.47;-24.94;-25.92;2.29;4.90;-13.29
-5.44;-20.15;-1.74;-2.61;4.90;-10.78
-7.08;-20.15;-1.74;0.65;-4.79;-8.39
-7.08;-20.15;-1.74;-1.74;4.90;-2.72
-9.47;-1.63;-1.74;5.44;4.14;1.31
-2.18;-7.30;-5.01;2.29;4.90;2.07
-4.57;-5.66;-0.98;11.11;0.11;12.52
3.48;5.66;-0.11;4.68;1.63;22.22
5.01;12.85;4.68;3.05;0.87;28.64
11.54;16.88;1.42;5.44;0.11;18.19
15.57;12.85;1.42;-4.25;-2.40;17.42
9.04;24.18;3.05;1.42;0.11;20.58
8.28;16.12;4.68;5.44;-7.19;7.73
10.67;16.88;0.65;-21.89;0.87;2.07
3.48;14.48;11.98;5.44;0.11;2.07
2.61;10.45;2.29;3.05;3.27;-10.02
-1.42;4.79;0.65;-0.98;-2.40;-11.65
-7.84;-5.66;17.53;1.42;0.87;-20.47
-7.08;-16.88;0.65;-1.74;-7.95;-34.96
-8.60;-19.38;-2.61;0.65;-19.28;-35.83
-11.11;-20.15;-0.98;0.65;4.90;-12.41
-10.24;-12.09;-0.11;-0.22;7.30;-0.33
-10.24;-22.54;-4.14;-6.64;-24.07;-0.33
-7.84;-50.75;-4.14;-0.98;4.90;2.07
-0.54;-15.35;-3.38;-1.74;4.90;3.70
-1.42;-8.06;-0.98;-31.58;4.90;19.82
3.48;4.79;-0.11;-9.04;8.93;18.95
3.48;11.33;-0.98;-0.22;-3.92;-0.33
2.61;6.43;2.29;34.41;-3.92;10.13
5.88;15.35;-0.11;-1.74;-2.40;14.16
10.67;27.44;3.92;3.05;0.11;15.79
-8.60;22.54;0.65;3.81;0.87;10.13
11.54;22.54;4.68;-0.98;-3.92;11.76
3.48;20.15;0.65;-0.98;-4.79;3.70
3.48;13.72;-1.74;0.65;-6.43;-5.99
2.61;-3.27;6.32;23.20;-7.19;-10.02
-1.42;-2.40;3.92;0.65;-16.01;-10.78
-3.81;-10.45;0.65;0.65;2.50;-18.08
-3.81;-8.82;-2.61;20.80;3.27;-15.68
-2.18;-32.23;-3.38;3.81;4.14;-14.05
-9.47;-20.91;-5.77;3.05;7.30;-17.32
-7.08;-20.91;-3.38;-20.36;4.90;-10.78
-47.26;-20.15;-2.61;-0.22;4.14;-5.99
-12.63;-18.51;-4.14;-0.98;5.66;-0.33
2.61;25.81;-0.98;7.08;7.30;4.46
5.01;1.63;0.65;0.65;6.53;18.95
1.85;1.63;1.42;5.44;4.14;27.88
1.85;5.66;-0.98;5.44;7.30;17.42
9.04;9.69;4.68;5.44;2.50;14.16
15.57;20.15;-0.98;2.29;3.27;15.79
8.28;20.91;8.71;-0.22;-19.28;36.70
5.88;28.21;3.92;0.65;1.63;35.94
5.01;30.60;1.42;2.29;-7.19;24.61
5.01;7.30;3.05;9.47;-5.55;-5.23
2.61;12.85;-0.98;3.81;-3.16;-23.74
1.85;1.63;15.14;1.42;-3.16;-23.74
-1.42;-0.76;-1.74;0.65;-2.40;-44.65
-0.54;-8.06;-1.74;-1.74;-18.51;-73.62
-3.81;-7.30;0.65;-1.74;-7.95;-48.68
-8.60;-18.51;-1.74;-5.01;-3.16;-47.92
-8.60;-21.78;-1.74;-32.45;4.90;-10.78
-8.60;-26.57;-0.98;0.65;9.69;3.70
-5.44;-17.75;-2.61;0.65;13.72;14.16
-3.81;-17.75;-1.74;-15.46;10.56;18.19
-1.42;-14.48;-1.74;-1.74;4.90;29.51
-1.42;-15.35;-0.98;-2.61;2.50;29.51
-0.54;-3.27;-0.11;6.32;4.14;24.61
3.48;7.30;0.65;3.05;2.50;22.98
5.88;26.57;4.68;-0.98;3.27;17.42
6.64;16.12;11.11;0.65;-2.40;15.79
9.04;18.51;3.05;3.05;0.87;12.52
7.51;25.81;1.42;2.29;0.87;7.73
4.25;19.38;1.42;7.08;-6.43;9.37
5.01;18.51;-0.98;3.05;-6.43;2.07
5.88;16.12;-0.98;1.42;-3.16;-8.39
5.01;8.06;1.42;-2.61;-3.16;-2.72
4.25;5.66;16.77;-0.98;0.87;-11.65
-3.81;-4.03;12.74;-3.38;1.63;-30.93
-7.08;-8.82;-0.98;-2.61;0.87;-11.65
-1.42;-12.85;-3.38;-4.25;4.90;-10.78
-9.47;-20.15;-2.61;-0.22;4.14;-6.75
-7.08;-27.44;-0.98;16.77;5.66;2.07
-8.60;-20.15;-0.98;2.29;8.93;25.48
-5.44;-20.15;-4.14;-0.22;0.87;-31.80
-13.50;-17.75;-1.74;11.11;-3.92;-30.93
-3.81;-8.82;-2.61;3.05;1.63;-3.59
-4.57;-2.40;-0.98;2.29;4.14;14.16
1.85;5.66;-13.07;-0.22;-0.76;20.58
2.61;22.54;1.42;3.05;4.14;22.98
5.88;16.88;0.65;-10.67;2.50;25.48
4.25;22.54;2.29;-18.73;0.87;18.95
5.88;25.81;3.05;7.08;-1.52;20.58
3.48;20.91;1.42;-1.74;0.11;13.39
5.88;18.51;20.04;-0.22;2.50;26.24
3.48;18.51;3.92;-4.25;-2.40;41.60
4.25;8.82;4.68;-6.64;4.90;23.85
-3.81;4.03;-0.98;-4.25;12.20;2.83
-2.18;-18.51;-0.11;-1.74;4.14;-8.39
5.88;-8.06;-0.98;3.05;0.87;-21.34
3.48;8.06;-0.98;-9.04;0.11;-42.25
-11.11;-22.54;-0.98;-1.74;-8.82;-69.59
0.98;-20.91;-1.74;-1.74;-3.92;-75.25
2.61;-20.15;-2.61;7.84;-0.76;-49.44
-7.08;-24.94;-0.98;16.77;-3.92;-31.80
-13.50;-11.33;-9.80;-1.74;2.50;2.07
-6.21;-7.30;-5.77;2.29;2.50;19.82
-8.60;0.76;-0.98;3.81;8.17;31.91
8.28;8.06;1.42;3.81;7.30;27.88
6.64;10.45;3.05;0.65;5.66;25.48
9.04;14.48;3.92;16.77;0.87;38.33
8.28;16.12;4.68;2.29;10.56;25.48
7.51;24.18;3.05;1.42;-3.92;27.88
9.04;20.15;1.42;3.81;-5.55;16.55
11.54;20.15;4.68;7.84;-17.64;4.46
8.28;17.75;3.92;-0.22;-3.16;2.07
3.48;7.30;-1.74;-1.74;5.66;2.07
0.98;-1.63;-0.98;-2.61;-2.40;-6.75
-1.42;-6.43;-0.11;-1.74;1.63;-14.05
-5.44;0.76;-13.07;-0.22;4.90;-15.68
-0.54;-20.15;-0.98;-1.74;1.63;-10.02
-7.08;-20.15;-0.98;-3.38;4.90;6.10
-5.44;-20.15;-0.98;-1.74;8.17;-10.78
-6.21;-19.38;-3.38;-28.42;4.90;-22.87
-7.08;-17.75;-1.74;-0.22;5.66;-8.39
-4.57;-11.33;-8.17;0.65;4.90;12.52
0.98;-11.33;-0.98;-0.22;4.14;18.95
2.61;-1.63;-3.38;3.05;9.69;20.58
4.25;5.66;-0.98;-23.52;6.53;30.27
3.48;10.45;3.05;-0.98;0.87;12.52
5.88;18.51;3.05;-29.19;3.27;22.98
7.51;22.54;-0.11;-1.74;15.35;14.16
5.01;22.54;-0.11;0.65;-2.40;2.83
3.48;16.12;1.42;5.44;-5.55;5.34
5.01;17.75;4.68;2.29;-8.82;-10.78
3.48;7.30;2.29;2.29;-6.43;-19.71
0.22;-8.82;3.05;-1.74;-11.98;-30.93
-11.11;-2.40;-0.98;-31.58;-18.51;-24.50
-10.24;-11.33;-1.74;-3.38;-19.28;-23.74
-7.08;-10.45;-1.74;-0.22;-7.95;-15.68
-8.60;-19.38;-21.13;-3.38;-19.28;-8.39
-9.47;-20.15;-3.38;-0.22;4.90;-6.75
-12.63;-23.41;-5.01;0.65;4.14;-0.33
-6.21;-21.78;-21.89;2.29;4.90;10.13
-4.57;-12.09;-0.98;-1.74;6.53;11.76
1.85;-12.09;-0.98;-0.22;4.90;13.39
-0.54;-8.06;-0.98;-24.39;7.30;10.89
3.48;-4.79;12.74;-1.74;4.90;22.22
3.48;6.43;1.42;7.08;30.71;26.24
4.25;11.33;1.42;7.08;2.50;7.73
7.51;20.91;3.92;3.05;-0.76;8.49
8.28;9.69;3.92;0.65;5.66;6.10
3.48;23.41;2.29;-1.74;-0.76;14.16
5.88;16.88;-0.11;-0.22;3.27;25.48
12.31;18.51;3.05;1.42;-2.40;6.10
1.85;18.51;-0.11;1.42;2.50;4.46
3.48;5.66;-14.70;2.29;4.90;2.83
3.48;5.66;-0.98;7.84;4.90;-14.05
-0.54;-6.43;-0.98;2.29;4.90;-19.71
-11.87;-12.09;12.74;2.29;6.53;-10.78
-6.21;-14.48;-5.01;0.65;17.75;-23.74
-7.84;-20.15;-5.01;-33.21;4.90;-22.11
-7.84;-45.96;-3.38;-0.98;4.90;-16.44
-5.44;-19.38;-2.61;-1.74;-19.28;-8.39
-5.44;-18.51;-0.98;3.81;4.90;-5.23
-4.57;-15.35;-2.61;-1.74;4.90;6.10
-8.60;-11.33;-1.74;0.65;3.27;10.13
-0.54;-1.63;-0.98;27.99;10.56;9.37
5.01;1.63;-0.11;3.05;2.50;22.22
9.04;14.48;3.05;10.35;-0.76;20.58
7.51;14.48;2.29;3.05;-13.61;-1.96
8.28;25.81;2.29;-15.46;-3.92;6.86
14.70;27.44;-5.77;-1.74;0.11;-5.23
8.28;18.51;1.42;-1.74;4.90;6.86
7.51;17.75;3.05;2.29;-9.58;14.16
3.48;13.72;-0.11;-1.74;-10.45;6.86
3.48;16.12;3.05;-12.31;-11.98;-1.96
4.25;4.03;1.42;-1.74;2.50;-11.65
-5.44;-7.30;14.37;-1.74;0.87;-23.74
-7.08;-8.06;18.40;-1.74;2.50;-22.11
-8.60;-17.75;-0.11;0.65;-2.40;-26.90
-9.47;-20.15;-0.98;-1.74;2.50;-22.11
-5.44;-17.75;-1.74;-0.98;12.96;4.46
-14.27;-21.78;-0.98;3.05;6.53;-0.33
-11.87;-20.91;-25.16;-0.22;4.90;6.10
-7.08;-9.69;-0.98;-0.98;4.90;-10.78
0.22;-4.03;-1.74;3.05;5.66;1.31
3.48;-5.66;3.92;-0.22;6.53;-14.81
4.25;8.06;3.05;2.29;8.93;9.37
6.64;12.85;1.42;-0.22;3.27;2.83
5.01;17.75;4.68;2.29;4.14;13.39
5.01;4.03;3.05;5.44;-20.04;41.60
4.25;31.47;2.29;7.84;4.90;51.18
3.48;16.12;3.05;2.29;-3.16;27.88
3.48;16.88;3.92;3.05;-10.45;38.33
3.48;13.72;1.42;-3.38;-11.98;12.52
2.61;5.66;-0.11;7.84;-16.88;-14.81
-1.42;-2.40;-0.98;26.35;-7.95;-34.19
-4.57;-12.09;-0.98;0.65;-3.16;-60.77
-5.44;-11.33;-3.38;-0.98;2.50;-60.77
0.98;-18.51;-0.98;27.99;-5.55;-50.31
-2.18;-28.21;-0.98;-1.74;0.87;-24.50
-9.47;-20.15;-0.98;-4.25;4.14;-27.77
-14.27;-20.15;-0.98;0.65;4.90;3.70
-6.21;-20.15;-0.98;3.05;7.30;2.07
-3.81;-17.75;17.53;7.08;7.30;6.10
5.88;-8.82;-0.98;10.35;8.93;4.46
7.51;1.63;-0.11;3.05;32.23;2.07
3.48;8.82;0.65;3.81;10.56;-5.23
4.25;-2.40;-0.98;3.81;3.27;14.16
5.88;17.75;4.68;-0.22;6.53;32.67
5.88;19.38;1.42;24.83;-0.76;35.94
3.48;18.51;-0.98;-25.16;-1.52;27.88
3.48;17.75;3.05;-1.74;-3.92;-0.33
10.67;16.12;4.68;-0.22;-3.16;0.44
-26.35;0.76;0.65;3.81;-5.55;-2.72
4.25;8.06;1.42;-2.61;-6.43;-16.44
-0.54;5.66;-5.01;-0.22;-13.61;-22.11
-2.18;-3.27;-3.38;0.65;-3.16;-5.23
-10.24;-14.48;-0.11;3.05;-2.40;-11.65
-0.54;-20.15;-3.38;-2.61;3.27;-36.59
-0.54;-20.15;-0.98;-28.42;4.90;2.07
-10.24;-27.44;-2.61;-0.98;-3.92;-6.75
-10.24;-20.15;-1.74;-0.22;0.11;-3.59
-11.87;-21.78;-1.74;-0.22;33.11;-6.75
-8.60;-17.75;-0.98;5.44;7.30;1.31
-6.21;-12.09;-0.98;7.08;4.90;2.07
-2.18;-2.40;-0.98;11.11;4.90;14.16
8.28;9.69;-0.11;6.32;3.27;15.79
3.48;10.45;2.29;3.05;1.63;15.79
6.64;13.72;0.65;-28.42;0.11;17.42
12.31;30.60;2.29;3.05;0.11;18.95
6.64;26.57;4.68;0.65;4.14;14.16
14.70;22.54;1.42;19.93;-2.40;13.39
11.54;-8.06;6.32;7.08;2.50;10.89
7.51;13.72;0.65;2.29;0.11;2.07
5.88;14.48;2.29;7.08;-3.92;-10.02
3.48;5.66;1.42;0.65;2.50;-12.41
-7.08;-8.06;2.29;26.35;0.11;-14.81
-3.81;-10.45;-0.98;6.32;1.63;-8.39
-4.57;-14.48;4.68;-1.74;0.87;-23.74
-10.24;-7.30;-5.77;-1.74;1.63;-23.74
-6.21;-22.54;-0.98;-1.74;4.90;-4.36
-4.57;-20.15;-5.01;-3.38;3.27;-26.90
-11.11;-20.91;-7.41;-3.38;4.14;0.44
-4.57;-27.44;-1.74;-0.98;4.90;-3.59
2.61;-8.82;-0.98;3.81;17.75;-2.72
3.48;-0.76;-0.98;3.81;5.66;6.86
11.54;8.06;-0.11;-0.98;4.90;28.64
9.91;8.82;0.65;-0.98;-1.52;23.85
9.04;15.35;0.65;0.65;-10.45;27.01
12.31;24.18;3.92;-0.98;-6.43;-3.59
9.04;25.81;1.42;-1.74;-20.91;-11.65
9.04;20.15;10.35;2.29;-5.55;-1.96
5.88;20.91;3.92;-1.74;-3.92;3.70
5.88;18.51;0.65;-1.74;-3.16;19.82
-2.18;16.12;-0.98;-3.38;4.90;6.86
-1.42;0.76;7.08;-0.98;6.53;-8.39
-7.08;-11.33;-4.14;-0.98;4.90;14.16
-3.81;-12.85;-2.61;0.65;-23.30;-23.74
-7.08;-20.15;-5.77;-3.38;-3.92;-34.19
-10.24;-20.15;-5.77;-1.74;0.11;-38.99
-9.47;-24.94;-0.98;0.65;-0.76;-21.34
-11.87;-20.15;-1.74;-1.74;5.66;-18.08
-12.63;-19.38;-0.98;-7.41;9.69;-2.72
0.22;-12.09;-2.61;-9.04;7.30;2.07
5.88;-2.40;-0.98;11.87;8.17;0.44
9.04;-4.03;-0.98;-0.22;6.53;9.37
5.88;22.54;-1.74;7.08;4.90;27.88
5.88;10.45;3.05;3.81;0.11;18.95
3.48;16.12;4.68;-0.98;-2.40;28.64
11.54;20.91;4.68;3.81;-2.40;40.73
6.64;6.43;2.29;0.65;-4.79;23.85
4.25;18.51;4.68;-0.98;-22.54;11.76
11.54;22.54;0.65;3.05;-2.40;10.13
10.67;22.54;3.05;-5.77;19.38;1.31
6.64;16.12;0.65;-1.74;-3.16;-10.02
3.48;4.03;1.42;-12.31;2.50;-13.29
-3.81;-7.30;-9.04;-1.74;4.90;-12.41
-7.08;-11.33;-0.11;-1.74;0.87;-14.81
-7.84;0.76;-3.38;-13.07;4.90;-18.08
-11.11;-27.44;-5.01;-0.22;5.66;-19.71
-13.50;-21.78;-1.74;-4.25;4.90;-14.81
-10.24;-16.12;-3.38;1.42;1.63;-11.65
-10.24;7.30;-1.74;-9.04;4.90;-4.36
-10.24;-16.88;-5.01;2.29;4.90;2.83
-11.11;-11.33;-2.61;2.29;8.17;-1.96
3.48;0.76;-0.11;6.32;9.69;6.86
5.88;14.48;3.05;3.05;-0.76;18.95
3.48;13.72;-0.98;-9.04;-2.40;15.79
5.88;-3.27;2.29;3.05;-2.40;26.24
9.04;24.18;7.95;3.05;0.11;19.82
9.04;27.44;2.29;0.65;-3.92;22.98
14.70;24.18;6.32;-9.04;-3.16;23.85
8.28;18.51;1.42;-0.22;7.30;12.52
3.48;14.48;0.65;-0.22;0.87;0.44
3.48;5.66;1.42;-0.22;0.87;2.07
1.85;3.27;0.65;-14.70;0.11;-10.02
-5.44;-7.30;1.42;7.08;-3.16;-24.50
-4.57;11.33;-0.98;0.65;0.87;-23.74
-7.08;-19.38;-1.74;9.47;-19.28;-42.25
-7.84;-25.81;-3.38;-1.74;-1.52;-35.83
-18.30;-24.94;-0.98;0.65;-2.40;-15.68
-10.24;-18.51;-0.98;6.32;6.53;-1.20
-6.21;-17.75;-0.98;7.08;4.90;-3.59
-3.81;-19.38;-3.38;-1.74;8.93;9.37
-3.81;-12.09;-0.98;-1.74;4.90;14.16
2.61;0.76;-0.11;-1.74;16.23;17.42
5.01;5.66;0.65;3.05;-2.40;23.85
7.51;5.66;3.92;1.42;0.87;19.82
5.88;17.75;1.42;6.32;-7.19;26.24
17.10;42.69;1.42;13.50;0.11;22.98
13.94;24.18;3.92;0.65;-6.43;12.52
8.28;23.41;33.65;-0.98;-2.40;4.46
7.51;19.38;2.29;6.32;0.11;30.27
3.48;14.48;4.68;2.29;2.50;12.52
-2.18;11.33;1.42;5.44;17.75;-0.33
2.61;-1.63;1.42;0.65;4.14;-6.75
-0.54;-11.33;-0.98;2.29;-12.85;-16.44
-9.47;-17.75;-0.98;2.29;4.90;-14.81
-6.21;-20.91;-0.11;0.65;4.90;-22.11
-11.11;-20.91;-2.61;3.81;1.63;-23.74
-7.08;-27.44;-12.20;-0.98;-6.43;-27.77
-9.47;-14.48;-4.14;-18.73;-6.43;-36.59
-7.84;-14.48;-1.74;-4.25;3.27;-15.68
-5.44;-14.48;-0.98;11.11;4.90;10.89
0.98;-8.82;-0.98;0.65;4.90;29.51
3.48;-3.27;-0.11;0.65;5.66;6.86
3.48;5.66;33.65;-0.98;3.27;22.98
3.48;10.45;3.05;6.32;-0.76;3.70
12.31;16.88;4.68;3.05;3.27;18.95
14.70;24.18;7.08;3.81;-2.40;2.07
9.04;17.75;3.05;3.05;-5.55;-2.72
11.54;19.38;3.05;-1.74;-2.40;-9.26
5.88;-9.69;3.05;-4.25;-3.92;18.95
3.48;13.72;3.92;3.05;-7.19;7.73
-3.81;-9.69;-0.98;0.65;-9.58;2.07
2.61;-3.27;-0.98;8.71;12.96;-0.33
-3.81;-8.06;-1.74;6.32;-5.55;-10.78
-4.57;-11.33;-0.98;2.29;0.87;-9.26
-9.47;-20.91;-3.38;-1.74;5.66;-15.68
-16.66;-28.21;9.47;-3.38;4.90;-38.22
-6.21;-24.18;-3.38;-4.25;4.90;-18.08
-10.24;-18.51;-0.98;-0.22;-11.98;-19.71
-7.08;-21.78;3.05;-1.74;12.20;-15.68
-2.18;-20.15;-2.61;-12.31;9.69;-4.36
-1.42;-15.35;-0.98;-1.74;4.90;2.83
2.61;3.27;-0.11;1.42;2.50;2.07
7.51;10.45;-1.74;-1.74;-5.55;25.48
8.28;49.99;-0.98;-1.74;-3.16;26.24
5.88;16.88;1.42;3.81;-0.76;32.67
10.67;24.18;0.65;2.29;2.50;30.27
12.31;19.38;3.05;3.81;0.87;18.95
10.67;20.15;5.44;9.47;-16.88;3.70
8.28;20.91;2.29;-0.22;-3.16;2.83
5.01;17.75;-0.98;2.29;-0.76;2.07
3.48;3.27;2.29;-0.98;-6.43;0.44
3.48;5.66;-0.98;27.99;2.50;28.64
2.61;-7.30;-0.11;3.05;4.90;2.07
-5.44;-8.82;-1.74;6.32;2.50;1.31
-8.60;-17.75;14.37;-2.61;4.90;17.42
-14.27;-24.18;-8.17;-0.98;4.90;-36.59
-8.60;-28.97;-2.61;1.42;8.93;-18.08
-7.84;1.63;-2.61;-1.74;4.14;-37.35
-2.18;-23.41;-0.98;2.29;4.90;-43.89
0.98;-19.38;-21.13;-0.98;6.53;-55.10
-5.44;-10.45;-2.61;-1.74;4.90;-42.25
-0.54;-2.40;-0.11;2.29;3.27;-10.02
5.01;7.30;-3.38;3.81;-2.40;7.73
5.01;12.09;-0.98;2.29;-2.40;13.39
6.64;38.66;2.29;2.29;0.11;14.16
5.88;24.18;2.29;-0.22;-5.55;18.95
4.25;26.57;7.95;8.71;-2.40;27.01
9.04;16.88;0.65;6.32;-2.40;48.79
5.88;21.78;4.68;-0.98;-7.19;27.88
-0.54;12.85;-0.98;3.81;-7.19;13.39
-2.18;31.47;-0.11;3.05;-5.55;2.83
-3.81;2.40;-0.98;-0.22;3.27;4.46
-3.81;-6.43;-1.74;-19.49;3.27;-9.26
2.61;-9.69;-2.61;-1.74;4.90;-23.74
-5.44;-19.38;24.83;-1.74;4.90;-22.11
-9.47;-22.54;-4.14;-11.43;8.93;-22.87
-13.50;-24.94;-1.74;0.65;22.65;-14.81
1.85;-20.15;-0.98;-0.22;6.53;-8.39
-1.42;-18.51;-0.98;3.05;7.30;1.31
-9.47;-16.12;-1.74;-1.74;4.90;4.46
-4.57;-20.15;-0.98;2.29;-2.40;10.13
5.01;-4.79;-16.23;-0.98;8.93;18.95
3.48;8.06;-0.98;5.44;-3.92;27.88
3.48;12.85;1.42;-9.80;-14.48;-5.23
2.61;16.88;1.42;6.32;-19.28;-1.96
4.25;20.91;3.92;-1.74;-8.82;10.89
12.31;25.81;3.05;3.81;-0.76;30.27
4.25;26.57;2.29;2.29;4.90;40.73
5.88;20.91;4.68;5.44;7.30;18.95
3.48;12.85;6.32;3.05;-2.40;-5.99
3.48;5.66;-0.11;-0.98;-10.45;-13.29
-0.54;5.66;-0.98;-1.74;-3.92;-24.50
-0.54;-9.69;-5.01;-1.74;0.11;-18.08
-2.18;-7.30;-3.38;-3.38;2.50;-26.14
-3.81;-16.12;-1.74;9.47;5.66;-23.74
-5.44;-19.38;-0.98;-1.74;4.90;-34.96
-11.11;-22.54;-4.14;-7.41;7.30;-13.29
-11.87;-20.91;-0.98;-0.98;-6.43;0.44
-3.81;-21.78;-8.17;-5.77;10.56;-8.39
-2.18;-17.75;12.74;-3.38;3.27;4.46
-1.42;-7.30;-0.11;0.65;4.90;12.52
3.48;1.63;2.29;0.65;4.90;18.19
7.51;10.45;-0.11;6.32;0.87;17.42
7.51;14.48;0.65;7.08;-10.45;18.95
5.01;20.15;-8.17;0.65;-2.40;26.24
6.64;24.18;3.92;7.08;-3.16;22.98
7.51;30.60;-0.11;2.29;-6.43;10.89
5.88;20.91;6.32;7.08;-7.19;12.52
5.01;21.78;0.65;2.29;-6.43;13.39
5.88;16.88;-0.98;3.05;-7.19;9.37
3.48;5.66;4.68;-0.98;-7.19;-6.75
3.48;-4.79;0.65;-0.22;-3.16;-10.02
2.61;-11.33;-0.98;-3.38;0.87;-14.81
-0.54;-8.82;0.65;-2.61;2.50;-11.65
3.48;-19.38;0.65;-0.98;4.90;-19.71
-6.21;-24.94;-1.74;2.29;4.90;-11.65
-7.08;-20.15;21.56;3.05;4.90;-8.39
-3.81;-28.97;-2.61;-0.98;7.30;-14.81
-2.18;-20.15;-2.61;2.29;18.62;-10.78
0.22;-16.88;-1.74;3.05;15.35;2.07
-5.44;-8.82;0.65;2.29;7.30;11.76
-7.84;-4.03;-0.98;-0.98;5.66;27.88
2.61;6.43;-1.74;-3.38;-16.01;32.67
3.48;-11.33;0.65;3.05;1.63;27.88
5.01;20.15;4.68;0.65;-9.58;19.82
5.88;21.78;12.74;-1.74;-20.91;-24.50
9.04;28.97;3.05;-1.74;-16.88;2.83
37.24;23.41;3.92;7.08;-7.95;-10.78
11.54;26.57;3.92;2.29;-9.58;-11.65
3.48;16.12;6.32;-0.22;-7.95;-14.05
0.98;5.66;-0.98;-0.98;2.50;-5.23
-7.84;0.76;-0.98;-0.22;0.87;-10.02
-2.18;-6.43;-0.98;2.29;4.14;-18.08
0.22;-8.06;-2.61;-3.38;2.50;-16.44
-11.11;-17.75;-0.98;-0.22;17.75;-10.78
-7.84;-24.18;-0.98;-0.22;13.72;-18.08
-11.11;-22.54;-5.77;0.65;10.56;-5.23
-9.47;-19.38;-3.38;2.29;9.69;15.79
-6.21;-24.94;-4.14;33.65;7.30;-0.33
-8.60;-14.48;-3.38;-1.74;9.69;2.07
-19.93;-40.29;-0.98;-1.74;4.90;12.52
0.22;-1.63;3.05;2.29;7.30;16.55
3.48;10.45;1.42;7.08;2.50;26.24
7.51;4.79;1.42;0.65;3.27;6.10
5.88;14.48;-0.11;3.05;0.11;23.85
5.01;24.18;2.29;0.65;-2.40;19.82
11.54;26.57;4.68;6.32;-6.43;10.13
10.67;13.72;3.05;-1.74;-3.92;2.83
4.25;16.88;0.65;-0.22;-0.76;6.86
3.48;12.85;3.92;-0.22;-2.40;2.07
3.48;16.12;1.42;-1.74;0.11;-0.33
-1.42;-20.15;-0.11;-0.98;0.11;20.58
-10.24;-9.69;-0.98;2.29;4.14;-10.02
-4.57;-11.33;-1.74;0.65;0.87;-11.65
-5.44;-14.48;-0.98;-0.98;2.50;-12.41
-10.24;-20.15;-1.74;32.02;4.90;-19.71
-12.63;-33.87;11.98;3.81;4.90;-21.34
-13.50;-21.78;-1.74;2.29;4.90;-23.74
-10.24;-21.78;-5.77;0.65;4.90;-10.78
-0.54;-21.78;-2.61;-0.98;-3.16;29.51
-0.54;-4.79;-1.74;3.81;4.90;39.97
-0.54;0.76;-0.98;0.65;-3.16;27.88
5.01;3.27;-0.98;1.42;2.50;52.82
3.48;7.30;-0.98;0.65;0.11;43.12
8.28;19.38;3.05;5.44;-5.55;15.79
10.67;30.60;3.05;-19.49;0.11;-18.84
9.04;31.47;-6.64;5.44;3.27;-55.10
11.54;21.78;3.05;3.05;-8.82;-75.25
5.88;4.03;6.32;2.29;-8.82;-61.53
4.25;21.78;3.92;-3.38;-12.85;-19.71
1.85;8.06;-5.01;-1.74;-8.82;12.52
3.48;-1.63;3.92;-5.77;-2.40;10.13
1.85;-9.69;-0.98;0.65;1.63;2.07
0.98;-43.45;-0.98;0.65;4.90;0.44
-6.21;-20.15;-1.74;-5.77;-6.43;-10.78
-11.87;-24.18;-1.74;-2.61;-4.79;-30.93
-11.87;-33.87;-1.74;3.05;3.27;2.07
-11.87;-27.44;-8.17;-5.77;10.56;1.31
-5.44;-20.91;-2.61;-2.61;12.20;3.70
-3.05;-18.51;0.65;-0.98;14.59;7.73
-0.54;-8.82;-1.74;-5.01;6.53;10.13
-13.50;-12.09;-0.98;-0.98;0.87;15.79
5.88;-5.66;-0.98;5.44;-6.43;15.79
5.88;13.72;-0.11;1.42;-1.52;1.31
12.31;17.75;6.32;-25.92;0.11;14.16
13.07;19.38;4.68;-0.22;4.14;19.82
9.04;27.44;7.95;3.81;2.50;30.27
11.54;23.41;3.05;5.44;4.90;26.24
0.98;16.88;4.68;3.81;-21.67;10.13
-0.54;9.69;1.42;0.65;-5.55;7.73
2.61;-14.48;-0.11;-3.38;0.11;3.70
5.01;3.27;1.42;-0.22;4.90;-6.75
0.98;-8.82;1.42;-5.77;0.11;-10.78
0.22;-6.43;-3.38;-4.25;3.27;-10.78
-5.44;-16.88;-2.61;-0.98;4.90;-40.62
-15.14;-24.94;-3.38;-1.74;4.90;-34.96
-8.60;-19.38;-0.98;-1.74;6.53;-26.14
-11.11;-50.75;-5.01;-0.22;3.27;-26.14
-7.08;-16.12;-2.61;-1.74;4.14;-21.34
-5.44;-14.48;-28.31;2.29;2.50;-2.72
3.48;-9.69;-0.98;3.81;9.69;2.07
3.48;-2.40;-15.46;2.29;0.11;-4.36
-0.54;7.30;-1.74;0.65;2.50;7.73
0.22;14.48;4.68;6.32;4.14;27.88
3.48;18.51;3.92;24.83;4.90;31.04
5.88;27.44;1.42;3.81;-2.40;25.48
4.25;30.60;3.05;7.08;-2.40;7.73
4.25;20.15;4.68;3.05;-3.16;2.07
7.51;20.91;3.92;8.71;0.11;2.83
7.51;10.45;10.35;0.65;-4.79;0.44
-0.54;16.12;3.05;-4.25;0.87;4.46
-2.18;-4.79;3.05;1.42;-0.76;2.07
-6.21;-40.29;-0.98;0.65;2.50;-10.02
2.61;-8.82;-0.11;8.71;2.50;-5.99
-0.54;-19.38;-0.98;-0.22;4.90;-10.78
-5.44;-22.54;-1.74;-1.74;4.14;11.76
-7.08;-25.81;-0.98;-6.64;5.66;-10.02
-9.47;-20.15;-0.98;-20.36;4.90;-14.81
-7.84;-20.15;-3.38;-0.22;4.90;-18.08
-7.84;-17.75;-0.98;-0.22;4.14;-32.56
-6.21;-8.82;-0.98;-1.74;0.87;-11.65
-3.81;1.63;0.65;3.05;2.50;16.55
3.48;5.66;-0.11;3.81;-5.55;27.01
5.88;7.30;-3.38;-0.98;-7.95;0.44
9.04;21.78;-0.11;6.32;2.50;22.98
8.28;24.18;3.92;1.42;4.14;18.19
-8.60;26.57;4.68;6.32;-18.51;10.89
7.51;-3.27;3.05;5.44;4.90;2.83
4.25;17.75;3.05;0.65;0.87;-6.75
4.25;14.48;6.32;-0.98;8.93;-10.78
3.48;3.27;4.68;3.05;-6.43;-8.39
-0.54;2.40;4.68;0.65;0.11;-10.02
2.61;-10.45;0.65;3.05;-0.76;-5.23
7.51;-12.09;-0.11;-2.61;-5.55;-18.84
-15.90;-18.51;-3.38;-4.25;-12.85;-24.50
-15.14;-21.78;-1.74;-1.74;-7.19;-22.87
-12.63;-20.15;-0.98;0.65;4.90;-12.41
-11.11;-20.15;-0.98;-0.22;5.66;-5.99
-14.27;-20.15;-5.01;-5.77;15.35;0.44
-7.08;-12.09;3.92;2.29;4.90;0.44
-1.42;-2.40;-2.61;-0.98;-0.76;30.27
0.22;-6.43;-0.98;-26.79;4.90;62.51
3.48;5.66;0.65;6.32;13.72;45.63
14.70;16.88;-1.74;-1.74;6.53;39.10
15.57;19.38;4.68;7.08;0.87;-6.75
7.51;24.18;-13.07;-0.22;-3.92;1.31
14.70;26.57;6.32;3.05;-5.55;-30.93
12.31;20.15;4.68;3.05;-15.25;-56.74
5.01;14.48;0.65;1.42;-9.58;-51.95
4.25;17.75;0.65;1.42;-11.98;-45.41
2.61;14.48;0.65;1.42;-11.98;-1.96
-0.54;5.66;-0.11;3.81;0.87;14.16
-0.54;-8.06;-0.98;-0.98;4.90;4.46
0.98;-11.33;-17.86;-1.74;7.30;-10.78
-3.81;-17.75;-5.01;-1.74;8.17;-1.96
-1.42;-27.44;-5.01;-5.77;5.66;-1.96
-3.81;-27.44;-0.98;-0.22;9.69;20.58
-9.47;-20.15;-0.98;-0.22;5.66;0.44
-4.57;-24.94;3.92;3.81;4.90;2.07
-5.44;-19.38;-0.98;0.65;4.90;18.95
-3.81;-8.82;-2.61;6.32;4.90;2.83
1.85;-3.27;11.11;5.44;4.14;2.07
2.61;5.66;-0.98;-0.22;4.14;-3.59
3.48;5.66;3.92;0.65;4.14;-10.02
-0.54;18.51;10.35;7.08;1.63;-11.65
3.48;20.15;23.20;0.65;-2.40;20.58
12.31;28.97;1.42;6.32;-7.19;19.82
9.04;20.91;-24.28;-0.22;-2.40;20.58
4.25;20.15;-0.98;0.65;2.50;23.85
5.88;56.41;4.68;-24.39;3.27;18.19
5.01;14.48;-0.11;-1.74;2.50;2.07
2.61;5.66;-0.11;-1.74;4.14;-1.96
3.48;-4.79;-0.11;-13.83;4.14;-5.99
-0.54;-11.33;20.04;-1.74;6.53;-22.11
2.61;-20.15;-0.98;2.29;0.87;-26.14
-7.84;-22.54;11.11;-3.38;-11.98;-24.50
-11.11;-20.15;-5.01;-0.22;-10.45;-9.26
-11.11;-20.15;-1.74;-2.61;0.11;12.52
-9.47;-20.15;-2.61;7.08;3.27;2.07
-6.21;-15.35;-0.98;-5.77;0.87;-6.75
1.85;-15.35;-0.98;-0.22;-12.85;-20.47
-1.42;-1.63;-0.11;-0.22;-7.19;-1.96
5.88;5.66;1.42;-20.36;-6.43;-2.72
0.22;8.82;1.42;2.29;-0.76;0.44
3.48;19.38;-0.11;-1.74;2.50;10.89
0.98;40.29;0.65;3.05;-0.76;17.42
14.70;26.57;-0.11;0.65;4.90;18.95
9.04;20.91;3.92;-1.74;0.11;15.79
2.61;18.51;3.05;3.81;-3.16;10.89
1.85;16.12;6.32;3.05;-15.25;6.86
3.48;10.45;3.05;-1.74;-0.76;5.34
-1.42;1.63;-0.98;2.29;0.87;-1.20
-1.42;-12.09;-5.01;0.65;2.50;-5.23
-3.81;-10.45;1.42;0.65;4.14;-6.75
-6.21;-19.38;-9.04;-1.74;16.99;-10.78
-8.60;-19.38;-1.74;-2.61;4.90;-18.84
-7.84;-20.15;-3.38;6.32;31.47;-12.41
-2.18;-51.51;-0.98;-1.74;6.53;-10.78
-3.81;-20.15;-5.01;-1.74;6.53;-5.23
-5.44;-8.82;-5.01;1.42;4.14;-21.34
-0.54;-6.43;12.74;-1.74;5.66;10.89
-22.32;1.63;2.29;7.08;-0.76;17.42
3.48;6.43;0.65;3.05;8.17;23.85
9.04;13.72;-3.38;3.05;5.66;16.55
12.31;14.48;17.53;3.81;4.90;17.42
8.28;24.94;9.47;3.05;3.27;20.58
7.51;27.44;-17.86;3.05;0.11;27.01
13.94;26.57;1.42;-0.22;-8.82;7.73
9.04;18.51;4.68;2.29;-17.64;0.44
7.51;15.35;0.65;1.42;-28.97;-3.59
5.01;5.66;1.42;-4.25;-52.27;-29.29
1.85;-2.40;-0.11;-1.74;-20.04;-28.53
-0.54;-4.79;-0.11;0.65;-15.25;-22.11
-4.57;-37.90;-0.98;2.29;-3.92;-8.39
-8.60;-16.12;-5.01;2.29;4.90;-10.02
-5.44;-22.54;-5.01;-1.74;29.84;-5.23
-4.57;-20.91;0.65;-0.22;12.96;-26.14
-9.47;-20.15;-19.49;3.05;10.56;-11.65
-11.87;-20.15;-0.98;10.35;10.56;-5.99
0.98;24.18;-0.98;1.42;12.96;2.07
-0.54;20.15;-0.98;-1.74;4.90;2.07
1.85;-0.76;-0.98;-0.22;4.90;27.88
1.85;5.66;0.65;0.65;4.90;14.16
3.48;10.45;11.98;-0.22;4.90;16.55
15.57;8.82;7.08;1.42;-21.67;30.27
9.04;24.18;1.42;3.05;0.87;39.97
8.28;17.75;7.08;-16.33;-3.16;25.48
13.94;28.97;-0.11;-0.22;-8.82;2.07
5.01;26.57;0.65;-0.22;-5.55;-11.65
5.01;17.75;1.42;2.29;0.87;-15.68
3.48;13.72;3.05;3.05;-11.98;-2.72
-4.57;8.06;1.42;-1.74;-6.43;-22.11
-8.60;-3.27;-0.98;-1.74;-7.95;-22.11
-7.84;-11.33;-0.98;-1.74;-3.16;-9.26
-16.66;-20.91;-1.74;-2.61;2.50;-13.29
-14.27;-30.60;-1.74;-3.38;4.90;-10.78
-7.84;-53.14;-3.38;2.29;4.90;-22.11
-3.81;-19.38;-0.98;-1.74;5.66;-14.05
-2.18;-18.51;-3.38;-2.61;4.90;1.31
-5.44;-20.15;-1.74;-0.98;4.14;8.49
-0.54;-12.09;-0.98;-0.98;0.87;14.16
-0.54;4.03;-0.98;0.65;17.75;20.58
7.51;35.50;-0.11;-1.74;4.90;20.58
0.98;6.43;0.65;3.81;1.63;14.92
5.88;16.88;-0.11;0.65;-0.76;2.07
9.04;22.54;0.65;2.29;-6.43;39.97
3.48;25.81;3.05;3.81;0.87;46.39
7.51;17.75;3.92;6.32;4.14;48.02
8.28;16.12;-0.11;-0.22;-6.43;66.54
9.04;16.12;1.42;4.68;-8.82;27.01
1.85;7.30;10.35;-1.74;0.87;-18.08
-3.81;0.00;6.32;2.29;2.50;-34.19
-2.18;-3.27;0.65;-1.74;4.14;-90.60
-4.57;-12.85;-1.74;-4.25;4.90;-80.91
-2.18;-14.48;-1.74;-29.19;4.14;-67.19
-9.47;-27.44;-1.74;-0.22;3.27;-30.93
-7.08;-21.78;-0.98;1.42;8.17;-1.20
-1.42;-21.78;-6.64;-2.61;3.27;-10.78
-8.60;-14.48;-5.01;-0.22;0.87;-15.68
-2.18;-18.51;-0.98;6.32;5.66;2.07
-3.81;-8.06;-1.74;-0.98;26.68;10.89
0.98;-11.33;-0.11;-0.98;-12.85;27.88
-1.42;5.66;-0.98;-0.98;-2.40;40.73
3.48;13.72;-0.11;3.81;4.90;31.91
1.85;17.75;0.65;5.44;-0.76;31.91
5.01;14.48;1.42;5.44;-5.55;25.48
5.01;26.57;-0.98;-0.98;-5.55;42.36
2.61;30.60;0.65;3.81;-0.76;20.58
4.25;17.75;4.68;3.05;0.11;40.73
5.88;16.88;4.68;-1.74;3.27;7.73
3.48;13.72;0.65;0.65;4.14;-18.84
3.48;3.27;-10.67;-1.74;-2.40;-1.96
-7.08;-8.06;-0.11;-0.98;4.14;-10.78
-13.50;-17.75;-0.98;-1.74;17.75;-15.68
-14.27;-16.88;-0.98;-7.41;2.50;-27.77
3.48;-20.15;-0.98;-6.64;-2.40;-34.96
6.64;-19.38;-5.01;3.81;-0.76;-26.90
4.25;-17.75;-0.11;-0.98;6.53;-32.56
1.85;-19.38;-0.98;1.42;-1.52;-8.39
-0.54;-20.15;-0.98;-0.22;0.11;2.07
-2.18;-9.69;-0.98;-3.38;4.14;9.37
4.25;28.97;-3.38;-0.22;5.66;25.48
11.54;-1.63;24.83;0.65;2.50;27.88
4.25;3.27;-0.98;3.81;4.90;16.55
-0.54;26.57;-0.11;-1.74;1.63;24.61
5.01;33.00;3.05;8.71;0.87;15.79
5.01;27.44;3.05;6.32;0.11;28.64
3.48;24.94;3.05;-1.74;0.87;26.24
7.51;19.38;3.92;0.65;-5.55;25.48
1.85;11.33;3.05;2.29;-7.19;13.39
3.48;9.69;-0.11;5.44;-3.92;3.70
3.48;-2.40;-0.98;-0.22;3.27;-16.44
-3.81;-3.27;-0.11;-1.74;1.63;-30.93
-1.42;-12.09;-0.98;-0.22;-0.76;-34.19
-8.60;-16.88;-0.98;-0.22;-2.40;-34.96
-5.44;-18.51;-1.74;-3.38;-3.16;-36.59
-11.11;-20.91;-26.79;-1.74;4.90;-18.08
-5.44;-19.38;-0.98;-0.22;-15.25;0.44
-2.18;-28.21;-2.61;-1.74;-3.92;-19.71
-8.60;-20.15;-0.98;-2.61;-7.19;-19.71
-2.18;-6.43;-0.98;0.65;-5.55;2.07
0.98;-2.40;-0.11;3.81;4.14;2.07
3.48;2.40;-3.38;-0.22;4.90;-0.33
5.88;9.69;1.42;3.81;4.90;18.95
11.54;17.75;-0.11;-0.98;4.90;13.39
7.51;29.84;3.05;-0.98;0.11;10.89
4.25;21.78;4.68;-0.98;2.50;19.82
3.48;14.48;7.08;-18.73;1.63;22.22
2.61;16.88;3.05;3.05;-5.55;22.22
3.48;17.75;3.92;-0.22;-6.43;14.92
5.01;5.66;3.05;2.29;-5.55;2.83
1.85;4.03;0.65;3.05;-2.40;-25.37
-4.57;-5.66;1.42;6.32;-10.45;-14.81
-5.44;-5.66;-3.38;-0.22;-11.98;-6.75
-7.84;-17.75;-0.98;-1.74;-3.92;-18.84
-11.11;-24.18;-1.74;-3.38;0.11;-21.34
-11.11;-20.91;-0.98;-20.36;7.30;-14.81
-4.57;-20.15;-1.74;-0.98;6.53;-10.02
-3.81;-11.33;-0.98;-0.22;12.20;-3.59
-2.18;-37.90;-2.61;-1.74;10.56;10.89
-2.18;3.27;1.42;-11.43;10.56;22.22
3.48;-3.27;3.05;1.42;5.66;14.92
3.48;5.66;0.65;-0.98;4.14;10.13
-0.54;7.30;-0.98;0.65;4.14;13.39
2.61;-3.27;3.92;2.29;-10.45;49.66
4.25;16.12;4.68;-2.61;-16.01;48.79
15.57;26.57;7.08;2.29;-3.16;29.51
16.33;18.51;7.95;-0.22;-3.16;33.54
0.98;14.48;3.05;-0.22;-18.51;15.79
-7.08;16.88;3.05;-0.98;0.87;-7.62
2.61;20.91;0.65;-2.61;-6.43;-57.50
3.48;6.43;1.42;0.65;-11.98;-92.24
-2.18;-4.03;-0.98;14.37;-7.19;-84.18
-10.24;-37.90;-0.98;0.65;-6.43;-63.16
-11.87;-14.48;-6.64;-0.98;-0.76;-13.29
-11.87;-24.18;-1.74;-3.38;5.66;2.07
-11.11;-29.84;-1.74;-0.98;7.30;22.98
-10.24;-24.18;-5.01;-2.61;10.56;19.82
-17.53;-22.54;-0.98;-1.74;4.90;7.73
-2.18;-23.41;-5.01;-3.38;4.90;10.89
1.85;-11.33;-0.98;-0.98;4.90;14.16
2.61;-6.43;-0.98;2.29;4.90;22.98
11.54;3.27;3.05;-0.98;4.90;26.24
12.31;10.45;0.65;3.81;0.87;25.48
14.70;14.48;11.11;3.81;-0.76;27.01
11.54;24.94;-12.20;-2.61;0.87;23.85
10.67;28.97;6.32;-19.49;-0.76;22.22
3.48;20.91;1.42;0.65;0.87;13.39
11.54;22.54;-0.98;-0.22;-6.43;33.54
7.51;8.06;3.92;-15.46;-5.55;3.70
3.48;13.72;0.65;-2.61;-9.58;-8.39
-3.81;24.18;0.65;-4.25;-7.95;-14.05
-0.54;-5.66;3.05;-1.74;-11.98;-22.87
1.85;1.63;-0.11;-1.74;-4.79;-18.08
-2.18;-18.51;-0.98;-11.43;2.50;-23.74
-11.11;-20.15;-4.14;-5.77;4.90;-18.84
-6.21;-20.15;-1.74;0.65;3.27;-10.02
-3.81;-20.91;-0.98;-0.98;4.90;-18.08
-3.81;-20.15;-5.01;-2.61;12.96;4.46
-7.08;-15.35;-5.01;-1.74;7.30;2.83
-1.42;-11.33;-0.98;-0.98;6.53;3.70
1.85;-2.40;-1.74;-1.74;5.66;14.16
2.61;4.03;-0.98;-1.74;6.53;13.39
5.88;5.66;3.05;0.65;4.90;-5.23
-19.93;17.75;-0.11;12.74;0.11;-5.99
4.25;26.57;1.42;-2.61;-20.04;-34.96
4.25;22.54;4.68;11.87;-12.85;-22.11
3.48;3.27;-0.11;3.05;-6.43;-0.33
5.88;16.12;1.42;1.42;-7.95;4.46
7.51;17.75;3.05;3.05;-6.43;2.07
4.25;7.30;1.42;1.42;-16.88;4.46
-2.18;0.00;-0.98;-5.01;-9.58;6.86
-3.81;-7.30;-0.98;-1.74;-4.79;2.07
-2.18;-34.63;-0.11;-0.98;4.90;2.07
-5.44;-9.69;-2.61;-2.61;6.53;-1.96
-7.08;-20.15;-3.38;1.42;12.20;22.22
-3.81;-21.78;-0.98;-0.98;10.56;-10.78
-7.84;-20.15;-1.74;-2.61;9.69;-5.99
-7.84;-19.38;-3.38;-2.61;9.69;-7.62
-3.81;-17.75;-1.74;11.11;12.96;4.46
-0.54;-19.38;-0.98;3.05;16.99;3.70
3.48;-4.79;-0.98;9.47;5.66;6.10
2.61;4.03;0.65;0.65;4.90;12.52
2.61;8.06;-2.61;0.65;4.90;2.83
4.25;16.88;2.29;-2.61;4.90;40.73
13.94;21.78;3.92;3.81;4.14;22.22
9.04;24.18;3.05;-0.98;-4.79;30.27
5.01;25.81;1.42;-0.22;3.27;2.83
9.04;17.75;-15.46;-0.98;-10.45;2.07
13.07;24.18;3.92;0.65;0.11;-11.65
7.51;13.72;4.68;3.05;-7.19;-8.39
3.48;38.66;-0.11;2.29;-7.19;-5.99
-0.54;-2.40;-0.98;-25.16;0.87;-3.59
-3.81;-8.06;1.42;-3.38;7.30;-8.39
-10.24;-45.96;-0.98;-1.74;-3.16;-17.32
-15.14;-20.15;-0.98;-0.22;-2.40;-14.05
-11.87;-24.18;-0.98;0.65;4.90;-10.78
-8.60;-22.54;-0.98;-0.98;8.17;-5.99
-4.57;-21.78;11.98;-0.98;5.66;4.46
-8.60;-20.15;-1.74;2.29;6.53;-26.14
-7.08;-12.85;-0.98;0.65;-20.91;-14.81
0.98;-6.43;-0.98;3.05;-2.40;-5.23
-4.57;1.63;-0.98;-0.22;-3.92;23.85
1.85;20.15;-1.74;-0.22;0.87;14.16
3.48;17.75;0.65;2.29;4.90;20.58
10.67;26.57;3.92;7.08;4.90;27.88
14.70;25.81;3.05;23.20;-19.28;27.88
3.48;13.72;1.42;29.62;17.75;21.45
9.04;17.75;-0.11;0.65;-5.55;27.88
15.57;26.57;3.92;6.32;-2.40;6.86
13.07;4.79;-0.11;-1.74;-5.55;-8.39
12.31;10.45;2.29;21.56;-5.55;-6.75
10.67;0.00;-2.61;-1.74;-0.76;-10.78
-1.42;-7.30;7.95;-0.22;3.27;-10.78
-3.81;-9.69;-0.11;2.29;12.20;2.07
-2.18;-24.94;-3.38;-0.98;7.30;27.01
-6.21;-21.78;-1.74;-22.76;8.93;2.07
-7.84;-25.81;-1.74;3.05;16.23;4.46
-13.50;-24.18;7.95;3.05;5.66;20.58
-10.24;-22.54;2.29;3.05;5.66;-5.23
-7.84;-14.48;-19.49;-1.74;5.66;-23.74
-3.81;-3.27;-5.77;1.42;4.90;-22.11
3.48;1.63;-1.74;3.05;2.50;-49.44
1.85;6.43;-5.01;2.29;-5.55;-47.92
0.98;-12.09;3.05;-14.70;-11.98;24.61
5.01;31.47;0.65;7.84;-21.67;67.30
6.64;26.57;3.05;2.29;-2.40;53.69
5.88;49.99;0.65;3.81;26.68;10.89
7.51;6.43;3.92;-1.74;-15.25;-33.32
3.48;40.29;-0.98;-0.98;-15.25;-49.44
0.98;6.43;12.74;-1.74;-11.98;-49.44
2.61;5.66;-0.98;1.42;-9.58;-22.11
-2.18;-5.66;27.22;-1.74;-6.43;-5.99
-3.05;-5.66;-1.74;-0.22;-5.55;1.31
-3.81;-18.51;-0.98;-9.04;0.87;2.07
-8.60;-23.41;-5.01;-29.95;5.66;2.07
-8.60;-22.54;-0.98;-2.61;5.66;-0.33
-0.54;-20.15;-0.98;0.65;6.53;2.07
3.48;-20.15;-0.11;-0.22;8.93;-2.72
-0.54;-18.51;-1.74;-2.61;22.65;5.34
-5.44;-7.30;-0.98;-0.98;7.30;35.07
0.98;-2.40;-0.98;0.65;7.30;23.85
3.48;6.43;4.68;2.29;5.66;22.22
3.48;5.66;19.17;-0.98;4.90;31.04
10.67;13.72;-0.11;-0.98;1.63;23.85
8.28;22.54;-0.98;3.05;4.90;25.48
11.54;6.43;3.05;-3.38;0.87;26.24
3.48;18.51;3.92;2.29;0.11;14.92
5.01;19.38;4.68;-1.74;-0.76;9.37
5.01;20.91;1.42;2.29;-6.43;3.70
3.48;8.06;-0.11;-0.22;-5.55;-10.02
-1.42;4.03;-0.98;-2.61;4.90;-6.75
-7.08;-31.47;-0.98;-4.25;0.87;-9.26
-3.81;-8.82;-0.98;0.65;1.63;-20.47
-9.47;-16.12;-1.74;-5.01;2.50;-23.74
-4.57;-18.51;-2.61;-1.74;7.30;-14.81
-7.08;-24.94;-0.98;-0.22;12.96;-10.02
-9.47;-20.15;-4.14;-0.22;9.69;-19.71
-5.44;-28.21;-5.77;-1.74;10.56;-10.02
-4.57;-20.15;-9.04;-0.98;12.96;-10.78
-2.18;-10.45;-0.98;-2.61;7.30;-11.65
3.48;1.63;-2.61;-0.22;20.15;2.07
3.48;5.66;-0.11;7.08;0.87;27.88
5.88;11.33;2.29;-0.98;-11.98;22.22
0.98;18.51;17.53;3.05;-23.30;9.37
3.48;29.84;1.42;2.29;-13.61;14.16
0.98;26.57;7.95;-0.98;-5.55;17.42
15.57;0.00;2.29;0.65;-10.45;27.01
13.07;27.44;-21.13;2.29;-7.95;15.79
2.61;18.51;1.42;3.05;-3.92;2.07
-2.18;13.72;-0.98;-0.22;0.11;-14.81
-5.44;5.66;-0.98;-3.38;-7.19;-14.81
-3.81;-8.82;-0.98;3.05;1.63;-10.02
-1.42;-2.40;-0.98;-0.98;0.87;-14.81
-5.44;-15.35;-0.98;0.65;0.87;-10.02
-6.21;-25.81;-2.61;0.65;1.63;-18.08
-4.57;-20.15;-3.38;-0.98;7.30;-13.29
-2.18;-19.38;-1.74;-0.98;6.53;-10.02
-7.08;-21.78;-1.74;-1.74;4.90;-10.78
-5.44;-27.44;-5.77;-36.48;5.66;6.86
-0.54;-16.12;-0.98;-4.25;-18.51;10.89
-1.42;-3.27;-0.98;-5.77;8.93;6.10
3.48;-5.66;-3.38;-0.98;8.93;2.83
9.91;7.30;7.95;0.65;12.20;13.39
6.64;16.12;-0.98;-7.41;4.90;33.54
12.31;28.21;3.05;-0.98;18.62;39.97
14.70;52.38;4.68;0.65;-6.43;31.04
5.88;28.97;3.05;3.81;-5.55;47.15
4.25;16.12;3.05;2.29;-20.04;15.79
5.01;11.33;3.92;19.93;8.93;-5.23
2.61;10.45;-0.11;-2.61;-28.97;-49.44
0.98;3.27;-0.98;-5.77;-19.28;-42.25
-1.42;-27.44;1.42;-29.19;-2.40;-22.11
-2.18;-8.82;-1.74;5.44;4.90;-11.65
-10.24;5.66;-0.98;0.65;2.50;-39.86
-6.21;-17.75;-0.98;-4.25;4.14;-38.99
-11.87;-23.41;-6.64;21.56;7.30;14.92
-7.08;-20.15;-0.98;-1.74;0.11;18.95
-10.24;-20.15;-0.98;-4.25;0.87;18.95
-7.84;-11.33;-5.01;-0.22;4.90;30.27
-2.18;-11.33;-0.98;5.44;3.27;20.58
-5.44;-5.66;3.05;0.65;4.90;2.07
3.48;1.63;0.65;0.65;4.90;-22.11
4.25;5.66;-0.11;10.35;10.56;-48.68
3.48;9.69;0.65;34.41;4.90;-44.65
5.01;17.75;1.42;2.29;4.14;-10.78
12.31;21.78;4.68;2.29;3.27;10.13
15.57;21.78;-21.13;5.44;0.87;14.16
18.73;38.66;4.68;2.29;-9.58;28.64
12.31;23.41;3.92;3.81;1.63;30.27
5.88;19.38;0.65;1.42;3.27;14.16
3.48;6.43;3.92;3.05;0.11;6.10
-5.44;-5.66;14.37;-1.74;2.50;1.31
-0.54;7.30;-0.98;-14.70;2.50;-0.33
-7.08;-11.33;-0.98;-1.74;4.14;-24.50
-7.84;-21.78;-3.38;-2.61;10.56;-9.26
-11.11;-24.18;-5.01;0.65;8.93;-10.78
-11.11;-3.27;-1.74;-0.98;6.53;-1.96
-9.47;-25.81;-3.38;-1.74;5.66;-10.02
-15.14;-20.91;-3.38;-1.74;6.53;2.07
-3.81;-16.12;-0.98;7.84;4.90;0.44
-3.81;-4.79;-0.98;3.05;4.90;3.70
3.48;3.27;1.42;3.81;4.90;7.73
3.48;6.43;-0.98;-13.83;-4.79;2.07
5.88;15.35;1.42;-0.98;-7.19;2.07
9.04;39.53;3.92;0.65;-7.95;7.73
13.07;56.41;7.95;-2.61;0.11;16.55
12.31;25.81;4.68;2.29;0.87;6.86
5.88;18.51;0.65;-0.22;-19.28;0.44
4.25;22.54;3.05;-1.74;-22.54;-5.99
3.48;11.33;6.32;-3.38;-8.82;6.10
-0.54;5.66;11.98;-4.25;-6.43;6.10
-3.81;0.76;-0.11;15.14;1.63;2.07
0.98;-12.09;1.42;-0.98;6.53;17.42
-0.54;-12.09;-0.98;-0.98;8.93;-22.11
-10.24;-20.15;-1.74;-26.79;4.90;-31.80
-12.63;-24.94;-2.61;-0.98;4.90;-29.29
-5.44;-20.15;-5.01;-0.98;6.53;-28.53
-3.81;-21.78;-2.61;-1.74;8.93;-10.78
-10.24;-16.12;-5.01;-0.98;8.93;-2.72
-8.60;3.27;-2.61;3.05;30.71;4.46
-3.81;-8.06;-0.98;0.65;2.50;39.97
0.98;7.30;-1.74;0.65;3.27;10.13
3.48;5.66;-0.11;-1.74;4.90;10.13
5.01;16.12;0.65;-0.22;4.90;23.85
10.67;24.18;1.42;3.05;2.50;55.21
5.88;22.54;4.68;2.29;0.11;27.88
12.31;57.17;1.42;4.68;0.87;40.73
6.64;20.91;1.42;21.56;4.90;27.88
7.51;16.12;0.65;-0.98;-7.19;3.70
3.48;8.06;1.42;1.42;-7.95;-18.84
-5.44;4.03;-1.74;7.08;5.66;-37.35
-7.84;19.38;-0.98;-0.98;-7.19;-27.77
-0.54;-4.79;-0.98;-1.74;0.87;-3.59
-3.81;-14.48;-0.11;0.65;-7.19;-22.87
0.98;-24.18;-0.98;-9.04;-7.19;-40.62
3.48;-25.81;-5.77;-0.98;4.90;-5.99
-3.81;-12.09;-1.74;-13.07;0.11;-13.29
-7.84;-28.97;-2.61;5.44;-0.76;2.07
-1.42;-17.75;-0.98;5.44;4.90;-29.29
0.98;-12.09;-5.77;44.98;11.33;-8.39
-0.54;-6.43;-1.74;-1.74;12.20;5.34
0.22;-5.66;-1.74;3.05;4.90;12.52
1.85;4.79;7.08;5.44;4.90;20.58
5.01;12.85;3.92;3.81;4.90;20.58
3.48;16.88;7.08;1.42;-0.76;10.13
3.48;31.47;-0.98;6.32;0.87;16.55
3.48;21.78;3.92;7.08;0.11;27.01
5.01;22.54;0.65;-13.07;-8.82;13.39
3.48;19.38;1.42;-1.74;-6.43;18.95
0.98;13.72;0.65;-0.98;-4.79;19.82
0.22;5.66;3.92;-25.92;-4.79;2.83
-0.54;2.40;0.65;-0.98;4.14;14.92
-0.54;-4.79;-1.74;15.14;12.20;-9.26
1.85;-7.30;-0.98;0.65;4.90;-14.81
-7.84;-19.38;-0.98;-3.38;4.14;-18.84
-7.84;-20.15;-4.14;-14.70;4.90;-15.68
-7.84;-20.91;-8.17;-0.22;4.90;-13.29
-4.57;-24.94;-3.38;-1.74;4.90;-16.44
-7.08;-20.15;-5.77;-1.74;4.90;13.39
0.98;-26.57;-0.11;-0.98;8.93;23.85
-3.81;-8.06;-2.61;-2.61;10.56;26.24
3.48;0.76;-0.98;3.81;4.14;27.01
3.48;8.06;0.65;-2.61;4.90;27.88
3.48;15.35;-0.98;-0.98;5.66;22.22
7.51;20.15;3.05;-0.98;6.53;-10.02
7.51;26.57;3.92;2.29;4.90;-30.93
7.51;21.78;-20.26;-0.22;-8.82;-50.31
0.98;16.12;-0.11;-2.61;-23.30;-61.53
1.85;11.33;-1.74;-0.22;-20.91;-26.14
2.61;12.85;3.05;3.05;-4.79;-6.75
-7.08;4.79;-0.98;-2.61;-20.91;-2.72
-2.18;0.76;3.05;3.81;-15.25;9.37
0.22;-9.69;-13.07;-2.61;-11.22;-0.33
-7.08;-13.72;-1.74;-25.92;-2.40;-0.33
-7.84;-21.78;-1.74;-3.38;4.90;15.79
2.61;-20.15;-0.98;-0.98;4.90;7.73
-4.57;-17.75;-0.98;-1.74;7.30;1.31
-7.08;-20.15;-0.98;6.32;-5.55;-10.78
-7.84;-20.15;-6.64;11.11;6.53;-10.02
-3.81;-17.75;-0.11;-0.98;13.72;17.42
28.42;-1.63;-5.01;0.65;10.56;-10.78
5.88;5.66;-0.11;8.71;7.30;-2.72
9.04;8.06;0.65;3.05;7.30;14.92
13.07;14.48;6.32;3.05;5.66;27.88
19.60;31.47;7.95;4.68;3.27;27.01
12.31;15.35;3.05;2.29;2.50;22.22
4.25;26.57;1.42;0.65;0.11;27.01
4.25;25.81;1.42;-0.98;30.71;39.10
5.01;17.75;2.29;-3.38;4.14;30.27
3.48;5.66;-9.04;-1.74;-3.16;16.55
-2.18;-1.63;-0.98;-1.74;-14.48;-16.44
-1.42;-8.06;-0.98;-1.74;-8.82;-22.87
2.61;-9.69;-0.98;0.65;8.17;-23.74
-0.54;-10.45;-1.74;-9.04;-15.25;-39.86
-7.84;-19.38;-0.98;-0.98;-10.45;-42.25
-13.50;-28.21;-5.01;-28.42;-5.55;-38.22
-14.27;-26.57;-6.64;2.29;4.90;-11.65
-7.08;-54.78;-2.61;-0.22;6.53;2.83
-7.84;-20.91;-18.73;-0.98;12.20;2.83
-3.81;-17.75;-0.98;2.29;10.56;12.52
0.98;-4.79;0.65;0.65;5.66;41.60
2.61;4.79;-0.98;0.65;4.14;22.22
3.48;9.69;-0.98;4.68;4.90;11.76
3.48;12.85;3.92;2.29;-3.16;23.85
7.51;23.41;-0.98;-0.22;4.90;14.92
9.04;27.44;3.92;5.44;-6.43;29.51
16.33;22.54;3.05;3.05;-5.55;14.92
15.57;27.44;1.42;-0.98;-7.19;2.07
9.04;29.84;3.05;3.81;-0.76;-10.02
3.48;22.54;2.29;-2.61;10.56;2.07
3.48;5.66;6.32;2.29;3.27;6.10
2.61;4.03;16.01;-1.74;4.90;-5.23
-10.24;-8.82;11.11;0.65;4.90;-7.62
-12.63;-7.30;-0.11;-0.98;7.30;-22.87
-16.66;-20.15;-14.70;-0.22;5.66;-12.41
-16.66;-21.78;-4.14;-0.22;9.69;-11.65
-13.50;-24.18;-1.74;-17.10;8.93;-10.78
-3.81;-32.23;-3.38;0.65;4.90;0.44
5.88;-45.96;-2.61;0.65;1.63;-2.72
-7.08;-27.44;-0.98;0.65;-2.40;-23.74
-1.42;-14.48;-3.38;-1.74;-11.98;-27.77
4.25;11.33;-0.98;1.42;-3.16;2.07
4.25;29.84;-0.11;13.50;0.11;19.82
3.48;25.81;1.42;3.81;1.63;74.60
5.01;34.63;3.05;0.65;4.90;72.20
7.51;36.26;-17.86;7.08;4.90;46.39
3.48;33.00;6.32;-1.74;-9.58;10.13
3.48;20.91;3.92;2.29;-10.45;12.52
9.04;14.48;2.29;7.08;-3.16;6.10
3.48;11.33;0.65;-0.22;0.87;-14.81
8.28;5.66;-13.07;0.65;7.30;-35.83
3.48;-6.43;-2.61;-0.98;3.27;-54.34
-1.42;-12.85;-0.98;-7.41;-13.61;-64.03
4.25;-37.03;-5.01;-2.61;-6.43;-38.22
-4.57;-20.15;-1.74;-1.74;2.50;-18.84
-36.05;-24.18;-0.98;-0.98;4.14;-22.87
0.22;-20.91;-0.98;1.42;4.90;-6.75
-22.32;-28.97;-0.98;-0.98;4.90;-1.96
-21.56;-24.94;-5.01;9.47;4.14;15.79
3.48;-12.09;-1.74;2.29;-3.92;2.83
16.33;-7.30;-0.98;-19.49;-0.76;23.85
8.28;4.03;-0.11;0.65;-9.58;6.86
9.04;5.66;0.65;2.29;0.87;2.83
26.79;8.06;2.29;3.05;7.30;22.22
0.22;37.03;2.29;8.71;4.90;30.27
-13.50;24.18;4.68;2.29;4.90;33.54
-18.30;26.57;1.42;3.05;2.50;36.70
8.28;27.44;7.95;9.47;4.90;32.67
17.97;20.15;1.42;7.84;0.87;26.24
12.31;22.54;2.29;-0.98;0.87;16.55
5.88;7.30;-0.98;0.65;-2.40;2.07
-0.54;-8.06;-5.77;-3.38;5.66;-22.87
1.85;-7.30;-2.61;-0.98;0.11;-31.80
-6.21;-14.48;-1.74;-3.38;4.14;-31.80
-15.14;-20.15;-8.17;0.65;4.90;-9.26
-23.20;-28.97;-5.01;-21.89;5.66;-18.08
-23.96;-17.75;-5.01;-5.77;4.90;-10.02
-14.27;-24.94;-9.04;-1.74;-0.76;-16.44
0.98;-20.15;-0.98;-3.38;2.50;-10.02
-7.08;-17.75;-1.74;-0.98;2.50;-6.75
-2.18;-18.51;-0.98;-1.74;5.66;2.07
-3.81;4.03;4.68;1.42;4.14;13.39
4.25;16.12;3.92;7.08;4.90;27.88
7.51;31.47;8.71;6.32;-2.40;25.48
11.54;36.26;9.47;0.65;0.11;27.01
9.04;35.50;3.05;6.32;-2.40;17.42
0.98;24.18;10.35;6.32;2.50;10.13
2.61;19.38;10.35;-1.74;3.27;10.13
5.88;-4.03;7.95;-0.22;0.87;17.42
14.70;15.35;-6.64;3.81;3.27;0.44
5.88;-4.03;3.92;2.29;0.11;2.07
0.98;19.38;-1.74;-2.61;0.87;-10.78
-8.60;-4.79;-5.01;-0.22;-5.55;-10.78
-3.81;-29.84;-9.80;-2.61;-3.16;-22.11
-14.27;-60.44;15.14;2.29;-7.19;-16.44
-20.69;-70.89;-11.43;-4.25;-16.88;-21.34
-17.53;-49.99;-26.79;-13.07;-11.22;-23.74
-8.60;-22.54;-17.86;-2.61;-2.40;-10.78
0.22;-12.09;-15.46;3.05;4.90;0.44
7.51;-11.33;-8.17;2.29;5.66;-1.96
5.01;13.72;-3.38;-0.22;4.90;-5.99
-23.96;4.03;-1.74;-1.74;4.90;20.58
-27.22;11.33;3.92;2.29;4.90;35.07
-8.60;-3.27;3.05;7.08;4.14;7.73
-16.66;21.78;8.71;6.32;0.11;3.70
3.48;17.75;7.08;3.05;4.14;20.58
9.04;17.75;3.92;5.44;-25.70;22.22
21.13;38.66;3.92;3.05;3.27;1.31
29.19;30.60;7.95;13.50;-5.55;16.55
33.21;23.41;3.92;-1.74;2.50;7.73
38.11;16.12;14.37;0.65;4.90;45.63
42.91;27.44;3.05;-2.61;4.14;28.64
16.33;-4.79;3.92;5.44;4.90;23.85
3.48;-6.43;20.80;6.32;12.96;27.88
2.61;-20.15;-0.98;-1.74;5.66;6.86
-10.24;-22.54;-13.83;-1.74;-3.92;-22.11
5.88;-14.48;-6.64;-5.77;-6.43;-59.13
15.57;-6.43;-0.98;2.29;-7.95;-88.21
0.22;-3.27;3.05;-0.98;-6.43;-86.58
-16.66;-2.40;3.05;-0.22;-3.92;-60.00
-20.69;-1.63;3.05;6.32;-5.55;1.31
-12.63;5.66;7.08;5.44;-9.58;2.83
-12.63;-4.79;-0.11;2.29;-8.82;-5.23
-17.53;-3.27;-3.38;-18.73;0.11;-9.26
-10.24;-4.79;-12.20;-0.98;-1.52;18.95
0.98;-11.33;-13.07;-2.61;-0.76;27.88
-0.54;-9.69;-5.01;-0.22;-18.51;35.07
3.48;-3.27;-0.98;1.42;-22.54;36.70
3.48;8.06;-0.11;6.32;0.87;31.04
12.31;16.88;7.08;0.65;6.53;26.24
11.54;20.15;3.92;3.05;5.66;17.42
2.61;13.72;3.05;3.81;4.90;27.88
-13.50;-8.06;-0.11;5.44;2.50;-3.59
-17.53;-6.43;-3.38;-0.22;-9.58;-15.68
-17.53;-18.51;0.65;-0.98;3.27;-13.29
-19.93;-19.38;-13.07;-0.98;8.93;-10.78
-20.69;-18.51;1.42;3.81;4.90;-8.39
12.31;-18.51;-0.98;9.47;12.20;-14.05
8.28;-8.06;0.65;7.08;4.90;-18.08
4.25;-3.27;-0.98;-15.46;5.66;-1.20
5.88;1.63;3.92;5.44;4.14;12.52
5.01;18.51;25.59;6.32;0.87;14.16
3.48;0.00;4.68;5.44;0.87;2.07
3.48;5.66;16.01;0.65;0.11;27.88
5.01;19.38;20.80;-0.22;0.87;30.27
5.88;31.47;7.95;0.65;-5.55;44.00
3.48;48.35;1.42;-5.77;-5.55;10.13
9.04;78.95;1.42;-3.38;-5.55;10.89
3.48;69.26;-5.01;-9.80;-17.64;-18.84
0.22;1.63;-21.89;-13.07;-34.63;-42.25
-10.24;-54.78;-30.82;11.87;-10.45;-30.93
-9.47;-104.76;-27.55;-3.38;-9.58;-14.81
-19.93;-71.66;-26.79;2.29;-16.01;-14.81
3.48;-23.41;-17.86;-0.22;4.14;-10.02
-9.47;-6.43;-11.43;-3.38;4.90;-5.23
-13.50;-12.09;-1.74;-5.77;7.30;-0.33
-36.81;-19.38;-0.98;11.87;17.75;3.70
3.48;-25.81;7.08;0.65;12.20;7.73
63.05;-17.75;9.47;0.65;10.56;14.16
68.72;4.03;16.01;3.05;12.96;16.55
62.29;5.66;6.32;-0.98;10.56;-10.02
30.06;4.03;-1.74;-0.22;6.53;25.48
1.85;-1.63;1.42;0.65;3.27;19.82
-48.13;11.33;13.50;3.81;3.27;2.07
-23.20;25.81;1.42;-1.74;-16.01;2.07
-15.14;27.44;12.74;-1.74;-2.40;0.44
-33.65;32.23;-0.98;-0.98;-3.16;-0.33
-8.60;40.29;15.14;-2.61;-7.95;-1.96
5.01;46.72;10.35;-9.80;-0.76;2.83
-11.11;68.50;-0.98;-1.74;-16.01;5.34
-23.20;52.38;-9.80;-0.22;2.50;-0.33
-4.57;16.88;-8.17;-0.22;3.27;-8.39
0.22;1.63;1.42;-21.89;9.69;34.30
7.51;-58.81;11.98;21.56;9.69;27.88
26.79;-50.75;-0.98;3.81;4.90;1.31
33.21;-37.03;-9.04;-4.25;4.14;-24.50
3.48;-45.08;-17.86;-3.38;0.11;-60.77
-44.10;-48.35;-13.83;-2.61;-7.19;-47.92
-60.22;-54.78;-5.01;-1.74;-20.91;-38.22
-56.95;-49.99;-0.98;11.11;0.11;-23.74
-24.72;-21.78;0.65;7.08;-11.98;4.46
-3.05;8.06;1.42;2.29;-15.25;26.24
30.82;6.43;3.05;-3.38;-3.16;26.24
27.66;18.51;0.65;7.08;-7.95;25.48
33.21;9.69;-2.61;11.11;-2.40;35.94
54.99;33.87;3.05;19.93;4.14;31.91
18.73;96.70;11.11;13.50;4.90;17.42
29.19;100.73;1.42;11.11;-18.51;2.07
54.23;74.16;-8.17;3.81;0.87;-1.96
54.99;33.00;11.98;-2.61;7.30;3.70
27.66;-45.08;7.95;15.14;8.17;27.88
-25.59;-53.14;-5.01;-9.04;4.14;-1.96
-47.26;-20.91;-0.98;-17.10;-10.45;-13.29
-31.15;-8.06;23.20;-27.55;-15.25;3.70
-19.93;-19.38;62.73;-38.01;-6.43;-5.99
-16.66;-56.41;23.20;-40.51;2.50;-1.20
8.28;-34.63;-21.13;-9.80;4.90;6.10
18.73;-42.69;-26.79;-0.22;12.20;-0.33
5.88;-35.39;-34.85;11.11;9.69;-21.34
-25.59;-41.06;-30.82;-23.52;12.20;-47.92
-33.65;-21.78;-17.86;3.81;10.56;-50.31
-11.87;24.18;-9.80;0.65;4.14;-33.32
26.03;58.04;-5.77;-4.25;0.87;6.10
29.19;82.98;-0.11;-1.74;-4.79;31.91
15.57;82.22;11.98;8.71;0.11;53.69
-7.84;38.66;13.50;11.11;5.66;38.33
4.25;-19.38;11.98;11.11;4.14;15.79
-10.24;-98.34;-3.38;36.92;-8.82;2.07
-15.14;-74.16;-13.07;11.11;-10.45;-3.59
-31.15;-33.00;-12.20;2.29;-2.40;7.73
1.85;-36.26;3.92;10.35;-15.25;0.44
11.54;-7.30;-8.17;-0.22;-15.25;17.42
-3.05;21.78;12.74;-5.01;-11.98;23.85
-33.65;32.23;11.11;-14.70;-16.88;-23.74
-56.95;-8.06;-0.98;-13.83;-6.43;-34.19
-52.16;-50.75;-23.52;-9.80;-1.52;-34.96
-45.74;-74.92;-40.40;-14.70;-8.82;-19.71
-17.53;-41.06;-30.82;-5.01;12.96;2.07
46.17;56.41;-10.67;-21.89;10.56;9.37
54.99;93.44;-0.98;10.35;4.90;38.33
31.69;44.32;-8.17;9.47;7.30;20.58
54.99;4.79;13.50;-2.61;6.53;44.76
46.17;16.88;22.43;8.71;7.30;33.54
29.19;57.17;23.20;14.37;4.90;53.69
15.57;82.98;15.14;5.44;-8.82;2.07
11.54;95.83;12.74;6.32;-3.16;-10.02
4.25;95.83;-13.07;3.05;-3.16;40.73
-16.66;-37.90;0.65;-2.61;-10.45;14.92
-13.50;-101.49;-0.98;-3.38;-15.25;-30.93
-6.21;-138.52;1.42;-3.38;-9.58;-63.16
-21.56;-58.04;11.98;-7.41;-7.19;-96.27
-22.32;33.87;23.20;-5.77;-16.01;-95.40
-19.93;67.63;11.11;-4.25;-12.85;-47.04
-11.87;30.60;-12.20;-2.61;5.66;0.44
-30.38;-34.63;3.92;0.65;19.38;15.79
-32.78;-44.32;11.98;0.65;16.23;20.58
-72.31;-32.23;5.44;9.47;13.72;9.37
-73.94;-37.03;11.98;8.71;-2.40;-18.08
-62.62;-24.94;11.98;3.05;-2.40;-21.34
-15.14;-17.75;16.77;-4.25;-5.55;-15.68
41.27;26.57;24.83;2.29;1.63;-26.14
86.47;70.89;24.83;-5.01;-2.40;6.86
76.77;45.08;10.35;-14.70;-11.98;-8.39
50.97;-8.06;-12.20;-13.83;-16.88;6.86
54.23;-58.04;-21.13;6.32;6.53;55.21
63.05;-39.42;-55.76;9.47;13.72;45.63
17.97;-5.66;-61.42;12.74;9.69;42.36
-3.81;7.30;-47.70;-0.98;-0.76;26.24
-29.62;41.93;-26.79;-4.25;4.90;19.82
-12.63;49.11;-6.64;18.40;-0.76;7.73
17.97;47.59;-16.23;-2.61;-3.92;2.83
27.66;31.47;-49.33;-14.70;-7.95;-2.72
5.88;41.93;-16.23;-21.89;-5.55;-29.29
-48.13;-6.43;-9.80;-25.92;4.90;2.07
-36.05;-46.72;16.01;-5.77;6.53;38.33
-48.13;-45.96;12.74;-29.95;4.90;22.22
-52.93;-85.38;17.53;-15.46;6.53;13.39
-14.27;-93.44;-8.17;-1.74;4.90;-0.33
-10.24;-41.06;-30.82;-18.73;-2.40;-15.68
47.81;56.41;-25.92;-13.07;-2.40;-25.37
57.39;71.66;-10.67;2.29;7.30;-35.83
57.39;28.21;-1.74;8.71;4.90;-23.74
54.23;-17.75;23.20;10.35;4.90;-40.62
32.45;-69.26;17.53;8.71;18.62;2.83
-7.84;-3.27;12.74;11.87;-3.16;52.05
-21.56;18.51;-0.98;6.32;1.63;27.01
-52.93;49.99;11.11;15.90;3.27;22.98
-27.99;46.72;11.11;11.11;-5.55;18.95
12.31;46.72;12.74;20.80;-20.91;1.31
-19.93;40.29;16.01;-5.77;-20.91;-6.75
-1.42;48.35;24.83;9.47;-3.92;-6.75
-33.65;53.14;28.86;29.62;0.11;-22.11
-36.81;-34.63;22.43;36.05;0.11;-24.50
-42.47;-97.47;-5.01;31.25;-5.55;-26.90
-86.03;-109.55;-9.04;26.35;-3.92;-23.74
-91.58;-20.91;0.65;11.11;10.56;-23.74
-37.68;3.27;-5.77;-9.04;7.30;-40.62
-17.53;-3.27;-5.01;-26.79;-3.16;-7.62
31.69;0.00;9.47;3.81;-22.54;12.52
129.16;36.26;69.15;-39.64;14.59;37.57
133.18;60.44;44.98;-49.33;16.99;40.73
67.84;53.14;-3.38;-25.16;8.93;18.95
2.61;-15.35;-40.40;-0.98;4.90;14.92
-37.68;-49.11;-42.04;11.11;4.90;2.83
-56.95;-2.40;-25.16;7.08;0.87;5.34
-42.47;18.51;-21.13;9.47;-7.95;15.79
-34.41;91.80;-33.98;-5.77;-13.61;10.13
-22.32;136.12;-3.38;-1.74;-18.51;18.19
5.01;78.95;10.35;5.44;-15.25;0.44
50.97;87.77;28.86;15.14;10.56;27.88
81.57;32.23;32.02;11.11;-3.92;-5.23
91.26;-28.21;9.47;1.42;-3.16;0.44
109.01;-79.71;-33.98;0.65;2.50;-2.72
29.19;-202.99;-30.82;-4.25;-2.40;-12.41
3.48;-140.15;-25.16;-10.67;3.27;-21.34
-22.32;-78.95;-32.34;-9.04;18.62;-27.77
-35.17;-41.06;-21.89;-10.67;4.14;-21.34
-34.41;7.30;7.08;1.42;9.69;-3.59
-18.30;6.43;20.80;11.11;16.99;-6.75
-39.20;-8.06;24.83;-18.73;7.30;-5.99
-46.50;1.63;20.80;-9.04;16.99;10.89
-29.62;48.35;14.37;3.81;-3.92;15.79
-7.84;94.31;24.83;44.98;4.14;9.37
8.28;90.28;39.31;28.86;-2.40;-1.96
15.57;41.06;36.92;2.29;-8.82;7.73
-27.99;31.47;-12.20;-9.04;0.87;36.70
-49.77;53.14;-32.34;-7.41;0.87;17.42
-48.13;32.23;-33.98;-12.31;4.90;16.55
-27.99;-28.97;-13.83;-5.01;-9.58;-14.81
54.99;-132.97;32.89;0.65;-10.45;-5.99
94.53;-54.01;16.01;-6.64;-2.40;-10.78
54.99;32.23;27.22;-6.64;-3.92;-41.38
-35.17;2.40;11.98;-7.41;-11.98;-54.34
-89.19;-47.48;-0.98;-0.98;-8.82;-36.59
-141.57;5.66;10.35;12.74;-4.79;-18.08
-86.79;-5.66;-0.98;22.43;-3.16;2.83
-11.87;-85.38;-21.13;33.65;4.90;6.86
80.80;87.01;-38.88;23.96;22.65;36.70
172.61;119.25;-48.46;14.37;23.41;40.73
123.49;-67.63;-21.89;10.35;20.15;31.91
97.68;-105.52;-3.38;3.81;9.69;13.39
30.82;17.75;29.62;3.81;6.53;19.82
-40.84;154.64;75.58;-23.52;1.63;12.52
-76.34;109.55;74.81;-42.04;-7.95;54.45
-71.44;-37.03;43.34;-52.60;4.14;50.42
-60.98;-122.51;-65.45;-53.36;3.27;26.24
63.82;-15.35;-54.99;-37.24;4.90;27.01
112.17;42.69;-0.98;-25.92;37.90;41.60
22.76;35.50;15.14;-23.52;-7.19;14.92
-35.17;45.96;-26.79;-18.73;-17.64;-11.65
-52.93;-63.60;-127.41;-23.52;-28.97;-68.06
-11.87;-67.63;-142.01;10.35;-20.04;-137.32
-4.57;43.56;-59.02;36.92;4.90;-77.65
-44.10;23.41;-8.17;35.28;4.14;-49.44
-47.26;-30.60;-3.38;11.11;-9.58;-44.65
-51.29;-96.70;9.47;14.37;-15.25;-24.50
-27.99;-114.45;35.28;44.98;-3.92;-12.41
-22.32;-92.67;44.98;49.00;4.90;-18.84
-22.32;-122.51;29.62;39.31;6.53;7.73
6.64;-28.21;24.83;-16.33;7.30;26.24
-4.57;62.84;15.14;-14.70;14.59;33.54
-18.30;88.64;11.11;-27.55;-8.82;16.55
-7.08;86.25;10.35;0.65;0.87;35.07
16.33;103.89;12.74;19.17;15.35;54.45
132.31;70.13;28.10;7.08;16.99;36.70
158.12;-8.06;73.18;11.11;10.56;45.63
47.81;-45.96;84.40;-9.04;4.90;27.88
115.43;58.04;62.73;-25.16;-8.82;18.95
28.42;160.30;49.00;-22.76;-20.04;-0.33
-50.53;60.44;11.98;-21.89;-18.51;-26.90
-55.32;48.35;20.80;-18.73;9.69;-21.34
-9.47;66.10;-0.98;4.68;5.66;-38.22
-106.94;-8.06;-122.62;11.11;-1.52;-18.08
-216.49;-150.61;-100.08;-6.64;0.87;-10.78
-198.74;-315.81;-44.43;23.96;2.50;-9.26
-32.78;-149.08;-83.09;23.96;-10.45;-22.87
40.51;0.76;-26.79;-6.64;-11.98;10.13
231.41;-14.48;9.47;-0.22;15.35;40.73
170.21;-56.41;-8.17;27.22;29.84;56.08
30.82;-49.99;106.18;62.62;25.05;58.48
-81.13;40.29;117.50;53.03;13.72;11.76
-125.45;33.00;228.69;3.81;1.63;-14.81
-115.76;82.98;327.79;-35.61;-3.92;-10.78
121.86;197.44;283.47;-20.36;0.87;2.07
186.33;84.62;63.49;38.44;4.90;10.89
33.21;-322.24;-129.92;36.92;8.93;-5.23
-147.23;-277.91;-195.15;32.89;31.47;20.58
-23.20;71.66;-309.49;3.81;-3.92;-78.52
-110.97;257.77;-333.67;-87.99;-46.72;-152.57
-77.97;215.95;-283.79;-143.64;-53.91;-130.03
75.14;16.12;-251.56;-143.64;-45.08;-75.25
63.05;-101.49;-83.96;-86.36;-38.66;-54.34
-28.75;5.66;8.71;-5.77;-37.79;-27.77
-149.63;-115.98;-33.98;18.40;-25.70;14.16
-144.84;-102.37;-104.11;36.92;4.90;89.84
-60.98;-58.04;-26.79;36.05;50.86;122.95
82.44;82.22;56.19;76.34;71.00;105.96
230.65;86.25;239.91;71.55;52.38;113.26
54.99;109.55;207.67;27.99;28.21;71.33
21.13;22.54;161.83;-10.67;15.35;41.60
-99.64;-30.60;123.06;-28.42;4.90;27.88
17.97;-106.40;76.34;11.11;10.56;28.64
211.27;58.81;50.64;16.77;12.96;27.88
96.05;62.07;87.66;25.59;-6.43;-8.39
-16.66;85.38;120.66;23.20;-34.63;-60.00
-77.10;20.91;36.05;-9.80;-45.08;-27.77
-104.54;51.62;-17.10;-25.16;0.11;5.34
25.16;103.13;-96.05;-49.33;0.11;18.95
132.31;277.15;-119.35;-40.51;0.87;7.73
70.35;186.11;-89.62;-18.73;0.11;25.48
-48.13;-145.05;-181.43;-18.73;-5.55;-11.65
-115.00;-268.33;-259.62;-40.51;-11.22;-35.83
-100.51;-280.42;-237.84;-25.92;-22.54;-57.50
-116.63;-145.05;-92.02;3.05;-11.22;-61.53
-40.84;-61.20;33.65;15.14;4.90;-75.25
10.67;-47.48;28.86;13.50;13.72;-69.59
42.91;-199.83;27.22;34.41;12.96;-75.25
-8.60;-222.37;24.83;12.74;-20.91;-114.78
-6.21;-76.56;39.31;9.47;-9.58;-43.89
67.08;-20.91;91.69;12.74;-23.30;4.46
30.06;32.23;78.84;19.17;-6.43;52.82
74.38;177.29;87.66;25.59;4.90;61.75
-6.21;143.42;35.28;18.40;5.66;71.33
-75.47;80.59;33.65;16.77;2.50;92.35
-177.07;1.63;43.34;31.25;6.53;88.32
-45.74;-24.18;58.70;23.96;2.50;62.51
109.01;12.85;67.52;13.50;-9.58;31.91
168.58;57.17;74.81;19.17;9.69;33.54
39.75;87.01;76.34;1.42;4.90;15.79
-75.47;107.92;26.46;-30.82;0.87;-10.78
-173.04;58.04;-5.77;-33.21;-8.82;-21.34
-44.87;79.71;3.05;-9.04;-5.55;-16.44
20.36;157.90;3.92;-5.77;-0.76;-20.47
-69.91;75.69;-9.04;-7.41;4.90;-2.72
-82.00;14.48;-42.04;5.44;4.90;-2.72
13.94;-33.87;-28.31;16.77;13.72;7.73
128.28;-209.52;-16.23;26.35;45.19;27.88
87.99;-171.63;76.34;-1.74;16.23;-23.74
59.89;-108.79;161.83;-15.46;-15.25;-25.37
42.91;-130.46;205.28;-21.89;-33.00;-66.43
55.87;-61.20;101.39;-21.89;-31.36;-80.91
30.06;108.79;-83.09;10.35;-19.28;-77.65
-74.71;101.49;-122.62;11.87;-7.19;-72.09
-104.54;80.59;-181.43;36.92;0.87;-52.71
-79.50;105.52;-217.69;88.43;18.62;-34.96
-33.65;120.01;-232.17;88.43;17.75;-14.81
-52.93;173.26;-155.62;84.40;12.20;2.07
-40.08;94.31;6.32;54.56;2.50;-8.39
-99.64;-107.16;167.38;11.11;-13.61;-11.65
92.89;-200.59;136.02;-42.91;-3.92;33.54
198.42;-40.29;100.51;-106.50;4.90;70.57
121.86;99.86;-33.98;-128.28;-20.91;31.91
160.52;-87.01;-118.59;-164.55;-7.19;79.39
15.57;-288.48;-95.18;-119.46;23.41;155.94
-44.10;-190.14;-146.80;-78.30;19.38;154.31
-271.27;-21.78;-52.49;-3.38;8.93;88.32
-138.30;11.33;77.21;65.12;22.65;62.51
-134.27;-20.91;160.95;77.97;22.65;28.64
-49.77;98.34;103.78;37.68;8.93;-47.04
4.25;57.17;-19.49;11.11;3.27;-62.40
-26.35;31.47;-76.67;23.20;-0.76;-49.44
-14.27;-24.18;-77.54;25.59;12.20;-19.71
310.36;161.17;-92.02;48.13;17.75;-8.39
209.74;-63.60;-26.79;49.00;4.90;-36.59
7.51;-49.99;206.91;35.28;-23.30;-28.53
9.04;74.92;318.86;37.68;-12.85;-29.29
65.45;44.32;318.86;36.92;-26.57;-61.53
-7.84;164.33;334.21;31.25;-21.67;-27.77
-118.16;211.92;227.06;-14.70;-33.00;-58.37
-227.82;-110.42;40.08;-37.24;-16.01;-9.26
-86.79;-202.99;-259.62;-14.70;12.96;14.16
-48.90;-128.94;-436.80;-23.52;4.90;27.01
-59.35;186.11;-456.18;-38.88;4.90;23.85
240.34;352.84;-284.56;-12.31;18.62;2.07
312.87;107.16;-132.31;6.32;13.72;14.16
234.68;-35.39;-36.37;21.56;19.38;12.52
16.33;-14.48;38.55;-9.04;-7.95;40.73
-280.20;-312.54;32.02;-26.79;-12.85;26.24
-221.28;-448.78;84.40;-45.30;-0.76;29.51
-165.75;-152.24;90.06;-36.48;14.59;10.89
-40.08;24.18;-38.01;0.65;28.21;6.86
62.29;47.59;-139.50;9.47;25.05;-11.65
12.31;-45.08;-118.59;2.29;7.30;-43.89
-19.93;16.88;-31.58;11.11;0.87;-36.59
-14.27;104.76;9.47;-16.33;-34.63;-57.50
27.66;234.46;68.28;-42.91;-35.39;-22.11
65.45;176.42;149.74;25.59;-50.75;-10.78
158.12;-45.96;128.72;27.22;-36.15;-15.68
175.00;-134.49;42.58;66.65;13.72;15.79
87.23;-8.06;16.01;37.68;18.62;19.82
29.19;92.67;-12.20;13.50;-3.16;2.07
-90.82;-32.23;0.65;-1.74;-5.55;-11.65
-151.26;-87.77;16.01;-4.25;4.90;-22.11
-61.86;4.79;33.65;-6.64;-9.58;-62.40
-39.20;4.79;77.97;25.59;6.53;-51.95
-61.86;-2.40;55.43;13.50;15.35;-23.74
-55.32;14.48;56.19;27.99;8.93;13.39
-11.87;5.66;73.18;7.84;1.63;-28.53
21.13;-70.13;49.00;-10.67;-8.82;-13.29
30.06;-66.10;-21.13;-29.95;-6.43;-13.29
-253.52;-30.60;-120.99;-33.21;-8.82;-64.80
-160.08;20.15;-150.83;-46.94;-8.82;-57.50
121.10;-74.16;-151.59;-54.12;-15.25;-34.96
460.21;0.00;127.96;-29.19;-8.82;39.10
136.34;19.38;203.64;-11.43;9.69;118.92
170.21;61.20;111.08;11.87;21.78;179.36
144.40;19.38;16.77;42.47;28.21;197.00
-61.86;16.12;-89.62;41.71;18.62;161.61
-135.91;57.17;-72.64;36.05;19.38;164.00
27.66;160.30;61.09;36.92;7.30;129.37
25.16;343.25;90.93;36.92;9.69;43.12
17.10;289.24;84.40;5.44;-2.40;-37.35
-71.44;77.32;-60.55;-74.27;-33.76;-76.88
-153.66;25.81;-158.01;-99.32;-44.21;-100.30
-181.86;-103.13;-236.20;-39.64;-34.63;-84.94
-151.26;-379.52;-286.95;-37.24;-2.40;-90.60
-131.12;-366.56;-134.71;-34.85;7.30;-83.31
-99.64;-198.96;-10.67;11.11;10.56;-76.12
-127.09;-232.83;93.33;63.49;29.84;-60.77
29.19;44.32;188.40;81.24;28.21;-76.88
59.89;160.30;174.68;19.17;10.56;-53.47
97.68;154.64;140.81;19.93;15.35;-18.08
162.15;133.73;90.93;8.71;-16.88;-9.26
140.37;62.07;6.32;-25.92;-51.51;-33.32
109.77;-45.96;17.53;-25.92;-35.39;0.44
20.36;-69.26;26.46;5.44;-9.58;36.70
87.99;-133.73;53.03;-0.98;4.14;25.48
104.98;-33.87;-169.34;2.29;19.38;45.63
-10.24;7.30;-142.77;27.22;10.56;25.48
183.93;-14.48;-56.52;38.44;6.53;17.42
21.13;59.57;56.19;41.71;17.75;-0.33
-280.96;178.81;102.15;36.92;20.15;-10.78
-162.48;131.33;41.71;32.89;7.30;-63.16
-227.82;4.03;20.04;12.74;-6.43;-69.59
-76.34;-323.87;-6.64;-14.70;9.69;7.73
182.30;-186.11;-69.48;-34.85;7.30;84.29
281.40;93.44;-62.94;-40.51;-2.40;89.84
40.51;263.43;0.65;-28.42;0.11;69.70
-99.64;-20.15;-21.13;-34.85;20.15;59.24
114.67;-185.35;-76.67;-16.33;8.93;25.48
67.08;-84.62;-31.58;-29.95;2.50;-14.81
195.15;17.75;33.65;-48.57;4.90;7.73
-85.16;74.16;76.34;-29.95;-18.51;1.31
-82.00;31.47;7.95;-10.67;5.66;3.70
-27.22;29.84;-21.13;52.16;29.08;27.88
44.54;30.60;-52.49;36.92;4.90;2.07
59.02;-22.54;-112.17;0.65;-18.51;42.36
83.96;-83.74;-112.93;10.35;-3.16;55.21
-13.50;-91.80;-9.80;23.20;3.27;31.91
-100.51;-149.08;-0.98;23.20;-7.19;-10.78
-222.92;-79.71;4.68;23.20;-3.16;-45.41
-204.41;35.50;67.52;25.59;4.90;-75.25
-48.13;157.14;49.00;28.86;31.47;-101.06
13.07;186.11;150.50;11.11;4.90;-121.97
-8.60;137.00;69.15;-24.39;-19.28;-122.84
-35.17;121.64;-66.21;-12.31;-11.98;-51.07
-48.90;57.17;-95.18;1.42;-20.04;-16.44
-117.39;46.72;23.20;-14.70;-21.67;31.91
34.09;47.59;133.62;-18.73;-28.10;-11.65
28.42;-162.70;52.16;-39.64;-20.91;2.07
270.94;17.75;3.92;2.29;7.30;14.92
312.87;168.36;11.11;38.44;12.20;17.42
-169.01;-178.81;102.15;52.16;32.23;-14.05
-228.58;-268.33;117.50;36.05;31.47;18.95
-335.74;-222.37;100.51;25.59;16.99;22.22
-190.68;-121.64;140.05;-14.70;25.81;79.39
215.30;35.50;32.89;5.44;21.78;92.35
18.73;82.98;-144.40;-30.82;7.30;108.46
-12.63;49.11;-184.69;-67.84;-18.51;68.17
19.60;-70.89;-205.60;-49.33;-8.82;76.99
17.97;-15.35;-142.01;-26.79;6.53;69.70
37.24;49.11;-138.74;-22.76;-16.88;-27.77
75.14;142.66;-104.11;-13.83;-26.57;-99.43
28.42;178.81;-104.11;-7.41;-12.85;-119.57
55.87;198.96;-83.09;-1.74;21.78;-76.88
79.93;116.85;69.15;44.10;31.47;-30.93
21.13;153.11;49.77;-17.86;4.14;-22.87
118.70;-153.11;-8.17;3.81;-3.16;41.60
183.93;-304.48;8.71;3.81;-8.82;28.64
-20.69;-85.38;103.78;48.13;-25.70;3.70
-102.15;113.58;72.31;35.28;-23.30;-29.29
-167.38;39.53;35.28;44.10;16.99;58.48
221.83;-162.70;24.07;50.53;48.35;88.32
93.65;-260.27;11.98;9.47;29.08;14.92
52.60;-41.93;17.53;-3.38;-19.28;-18.84
-88.43;-20.15;26.46;-28.42;-20.91;-7.62
-74.71;107.16;34.52;-31.58;2.50;-0.33
-228.58;237.62;40.08;-12.31;16.23;-5.99
-44.87;163.57;115.11;48.13;-1.52;-26.14
-3.81;-21.78;42.58;-14.70;-16.88;-19.71
269.31;83.74;36.92;-66.21;3.27;-1.96
195.15;119.25;57.83;-50.97;-7.95;-34.96
186.33;-60.44;159.32;-40.51;0.11;-19.71
173.48;-134.49;102.15;-0.98;15.35;6.86
6.64;-12.09;-87.99;11.11;9.69;-16.44
-60.98;-162.70;-319.19;21.56;8.17;-43.02
-63.38;-178.81;-377.23;-14.70;9.69;-41.38
-91.58;-96.70;-141.13;-17.10;6.53;-25.37
-60.22;-70.13;-0.98;21.56;15.35;-22.11
-15.14;-87.01;55.43;13.50;4.14;2.07
-52.16;-70.89;24.07;-0.22;-20.91;53.69
-6.21;45.96;-2.61;-44.54;-9.58;90.71
-36.81;95.07;94.96;23.20;16.99;83.42
67.08;68.50;114.24;9.47;4.90;80.26
257.98;129.70;105.42;38.44;-7.19;95.51
163.79;-12.09;66.76;-1.74;-17.64;54.45
43.78;165.20;76.34;10.35;-37.03;-10.02
86.47;259.40;7.95;19.17;-20.91;6.86
146.03;219.11;-46.94;37.68;-7.19;-23.74
41.27;20.91;-5.01;31.25;6.53;-79.28
-50.53;-24.94;1.42;-1.74;-18.51;-141.35
-77.97;-182.84;-52.49;-24.39;-16.01;-113.91
-54.56;-188.51;-71.00;-4.25;-7.95;-22.11
3.48;6.43;-39.64;-18.73;0.11;-2.72
2.61;-170.76;-5.77;58.59;5.66;-24.50
44.54;-59.57;58.70;19.93;-5.55;-68.06
38.11;-9.69;45.74;13.50;-5.55;-42.25
-7.08;52.38;-26.79;-5.77;-2.40;-48.68
83.20;78.95;-104.87;-1.74;4.90;-21.34
55.87;-14.48;33.65;26.35;29.08;6.86
338.57;156.27;114.24;-41.27;5.66;-9.26
70.35;72.53;91.69;-71.87;-20.04;7.73
-185.13;-212.68;36.92;-7.41;0.11;83.42
-420.35;-75.69;14.37;9.47;5.66;83.42
83.20;126.54;50.64;15.90;25.81;124.58
0.98;169.99;-62.94;-5.77;9.69;78.63
117.07;153.11;-124.25;37.68;20.15;90.71
158.89;140.15;-52.49;39.31;22.65;77.75
85.60;-153.11;-5.01;15.14;6.53;70.57
111.40;-236.86;23.20;-0.98;4.90;27.01
-3.81;-85.38;99.75;5.44;-11.22;-24.50
-151.26;36.26;62.73;-29.95;-15.25;-9.26
-125.45;91.80;-13.07;-48.57;-16.01;22.22
86.47;37.03;-70.24;0.65;0.11;-36.59
150.06;-53.14;-79.93;13.50;-3.92;-75.25
95.29;-71.66;-106.50;26.35;8.17;-71.22
-19.17;-162.70;-129.92;11.11;17.75;-51.07
18.73;-184.48;-78.30;-0.98;0.87;-61.53
-73.94;-45.96;50.64;-26.79;-41.06;-20.47
37.24;55.54;114.24;-40.51;-2.40;12.52
63.82;-8.06;91.69;-66.21;13.72;49.66
18.73;-98.34;0.65;-40.51;4.14;-5.23
-90.82;-37.90;-38.01;-34.85;-20.04;-73.62
-262.45;-7.30;-199.18;-27.55;-32.13;-77.65
-163.35;-36.26;-289.35;28.86;4.90;-53.47
-42.47;104.76;-195.15;61.86;25.05;-25.37
-25.59;175.66;46.61;72.31;26.68;-8.39
175.87;134.60;165.85;47.37;8.17;9.37
472.30;-24.18;127.96;57.06;29.84;23.85
363.62;57.17;103.78;35.28;8.93;18.19
343.47;199.83;115.11;28.86;4.90;44.76
168.58;82.22;56.19;11.87;4.14;30.27
-177.83;19.38;-94.42;-5.77;-3.92;53.69
-121.42;78.19;-125.02;-14.70;16.23;72.20
-151.26;13.72;-91.15;-31.58;4.14;84.29
76.77;-197.44;-38.88;-75.14;-14.48;53.69
-18.30;-303.72;19.17;-53.36;-8.82;33.54
-79.50;-408.48;6.32;-92.02;-24.07;-23.74
4.25;-243.28;-26.79;-46.06;-19.28;-61.53
-11.87;72.53;11.11;-12.31;-6.43;-72.85
-259.18;227.17;50.64;0.65;4.90;-52.71
-86.79;44.32;-50.09;-28.42;-42.69;-52.71
-94.85;233.70;28.10;-9.04;-1.52;-24.50
59.02;237.62;86.90;18.40;12.96;4.46
50.20;113.58;129.59;41.71;2.50;-34.96
-29.62;46.72;153.77;39.31;-16.88;-69.59
-58.59;-18.51;145.71;20.80;-9.58;-56.74
-84.40;-122.51;115.11;11.87;-9.58;-47.04
-151.26;27.44;24.83;32.89;-20.04;-18.08
40.51;-30.60;-203.21;27.99;16.23;68.93
75.90;-9.69;-363.51;23.96;30.71;130.14
253.19;-2.40;-276.50;7.08;20.15;103.56
57.39;16.12;-106.50;9.47;6.53;105.20
109.77;-45.08;-8.17;-13.83;7.30;93.87
178.27;-20.15;38.55;-3.38;18.62;17.42
132.31;68.50;133.62;23.20;31.47;9.37
-99.64;99.86;217.36;0.65;-3.92;-0.33
-396.18;57.17;204.51;-73.51;-20.91;-30.93
-264.84;-58.81;165.85;-92.78;-17.64;-2.72
-55.32;-220.74;157.80;-13.83;2.50;69.70
-17.53;-244.92;144.07;-35.61;-7.95;-5.23
44.54;-195.80;139.17;-6.64;17.75;-51.95
26.79;33.00;81.24;47.37;15.35;-55.10
-86.03;147.45;77.97;38.44;21.78;-26.90
-241.43;177.29;61.09;32.89;17.75;-23.74
-235.88;148.21;47.37;32.02;0.87;-19.71
133.95;175.66;153.77;22.43;2.50;-9.26
329.75;103.89;272.14;23.20;-17.64;-38.22
304.81;62.07;223.79;16.77;-33.76;-29.29
188.72;-128.94;-26.79;-0.22;-37.03;10.13
2.61;-120.88;-108.90;-5.77;-22.54;20.58
-99.64;-4.79;-137.98;-21.13;-22.54;-13.29
-97.25;-6.43;-195.15;-22.76;-42.69;-72.09
-161.72;62.07;-74.27;-3.38;-18.51;-55.10
-114.24;70.13;-3.38;7.08;4.14;-57.50
-211.70;-248.95;-52.49;0.65;33.87;-22.11
-230.21;-240.89;9.47;-13.83;42.80;10.13
92.02;-80.59;76.34;18.40;33.11;28.64
86.47;49.99;115.11;5.44;23.41;51.18
191.99;224.01;61.86;10.35;25.05;48.02
349.90;111.95;64.25;22.43;31.47;15.79
248.40;-50.75;160.95;20.80;3.27;-50.31
227.38;-45.96;164.98;18.40;-28.10;-112.38
154.86;-56.41;50.64;-17.86;-74.81;-76.88
93.65;17.75;-9.04;-0.98;-37.79;2.07
-84.40;72.53;-5.77;36.92;-12.85;97.90
-52.16;207.02;-98.45;49.00;7.30;135.04
1.85;111.95;-208.87;-5.77;8.93;109.99
502.14;31.47;-33.98;-34.85;12.96;57.72
993.60;-137.00;67.52;-30.82;8.93;10.13
975.85;-96.70;145.71;-31.58;9.69;-0.33
1124.17;-91.80;67.52;-27.55;-3.16;-47.04
929.13;-175.66;-26.79;-42.04;-7.19;-76.88
706.76;-136.12;-77.54;-42.04;2.50;-57.50
648.83;-122.51;-201.57;-2.61;20.15;31.91
720.48;-8.06;-91.15;37.68;29.84;84.29
645.56;133.73;-14.70;27.22;25.81;105.20
474.80;143.42;82.00;-18.73;-6.43;84.29
326.48;217.58;81.24;-21.13;4.90;18.95
274.97;113.58;154.53;-13.07;3.27;-13.29
360.35;-4.79;47.37;-26.79;16.23;-10.78
181.54;-208.65;13.50;-16.33;1.63;-67.19
28.42;-48.35;102.15;-10.67;-7.19;-128.39
15.57;17.75;190.79;11.11;-19.28;-167.16
53.36;68.50;136.02;46.50;-20.04;-47.92
54.99;113.58;80.37;60.22;-12.85;74.60
-14.27;82.98;-17.10;64.25;-2.40;75.36
-85.16;103.13;-13.07;55.43;0.87;60.88
-105.31;54.01;-26.79;32.89;-24.94;-2.72
-214.86;-59.57;30.49;13.50;-21.67;-25.37
-301.11;21.78;204.51;18.40;-2.40;-22.87
-365.58;-87.01;170.65;7.08;-2.40;-53.47
-255.15;-58.04;71.55;-17.10;-6.43;-49.44
-235.88;-20.15;-2.61;-9.04;16.99;-10.78
-138.30;-75.69;-50.97;-5.77;35.50;40.73
-86.79;-188.51;6.32;35.28;25.81;16.55
-243.94;-60.44;-79.06;-15.46;-11.98;-41.38
-526.64;-36.26;-129.05;-90.39;-20.04;-23.74
-285.75;28.21;-60.55;-78.30;2.50;35.94
-177.07;-66.86;-37.24;-36.48;0.11;-1.20
79.93;-71.66;-0.98;-1.74;-0.76;-24.50
-163.35;57.17;22.43;-3.38;7.30;20.58
-160.95;94.31;16.01;0.65;2.50;48.79
-164.98;98.34;-1.74;27.99;4.90;53.69
-229.34;134.60;24.83;69.91;4.90;33.54
-234.24;46.72;-61.42;20.80;-20.91;4.46
-253.52;-37.90;-120.99;-15.46;-23.30;2.83
-335.74;-2.40;-88.75;0.65;-3.92;22.22
-466.31;-22.54;-50.97;7.08;4.90;6.10
-152.02;33.00;-39.64;29.62;-22.54;-16.44
80.80;165.96;-0.98;29.62;-9.58;0.44
154.09;290.00;16.77;27.22;-3.16;-11.65
-84.40;224.77;120.66;39.31;0.87;-23.74
-177.07;-29.84;190.79;51.40;30.71;20.58
15.57;-346.41;74.81;12.74;17.75;0.44
-85.16;-521.30;39.31;-25.16;4.90;-23.74
-48.13;-235.22;24.83;23.20;21.78;-47.92
-105.31;-34.63;-108.14;23.96;12.96;-69.59
135.58;-92.67;-153.22;-33.21;2.50;-60.77
132.31;-141.79;-202.34;-83.96;2.50;2.07
106.61;67.63;-129.05;-67.08;19.38;38.33
-139.17;117.61;-67.84;-35.61;-3.92;57.72
-27.22;303.72;-104.11;-38.88;10.56;131.01
-4.57;185.35;-249.05;-17.86;-23.30;109.23
186.33;-74.92;-288.58;28.86;10.56;113.26
433.64;-20.15;-66.97;29.62;16.23;77.75
218.56;24.18;107.81;25.59;4.90;-10.78
-50.53;54.01;308.40;21.56;-7.95;-2.72
-115.00;33.87;208.54;11.11;-12.85;-23.74
-123.82;-1.63;73.18;-14.70;-20.91;10.89
-110.97;31.47;11.98;11.11;4.90;13.39
-152.90;31.47;-38.88;3.05;2.50;-12.41
-102.15;-19.38;1.42;54.56;15.35;0.44
-139.94;-80.59;42.58;27.99;-7.95;-55.10
-98.88;-9.69;39.31;11.11;-21.67;-108.36
-98.12;3.27;-59.79;-14.70;-3.16;-118.81
-132.75;-36.26;-62.94;-2.61;23.41;-82.55
-130.24;-64.47;-72.64;-2.61;4.14;-109.88
-151.26;-122.51;-111.30;-40.51;-18.51;-111.51
-43.23;-148.21;-108.90;-34.85;5.66;-90.60
-171.41;34.63;53.03;6.32;15.35;-21.34
-159.32;146.58;53.03;36.05;17.75;35.94
-123.06;117.61;-40.40;16.77;0.11;81.78
-40.08;58.04;-37.24;-17.86;4.90;105.20
11.54;46.72;-17.86;-1.74;-2.40;76.99
28.42;-15.35;-41.27;11.11;-11.22;48.79
246.77;-118.48;-125.89;-5.77;-9.58;10.89
237.95;-84.62;-170.97;-17.10;-3.16;7.73
-36.05;14.48;-162.91;-3.38;0.87;-16.44
-254.39;108.79;-128.28;0.65;1.63;-1.20
-623.34;75.69;-21.13;10.35;-16.01;26.24
-305.90;-33.00;40.08;12.74;6.53;65.67
80.80;-77.32;24.83;26.35;2.50;42.36
179.90;-7.30;-5.77;26.35;-6.43;-8.39
156.49;8.06;-6.64;11.11;0.87;-26.14
-150.39;18.51;-8.17;15.90;5.66;-6.75
137.98;29.84;4.68;28.86;15.35;-3.59
-68.28;-45.96;3.05;25.59;5.66;-18.84
-76.34;-95.83;4.68;-14.70;-7.19;-25.37
-40.08;-74.16;-5.01;-47.70;-2.40;-38.99
-58.59;36.26;65.12;-31.58;25.05;-35.83
-146.36;107.92;135.14;-14.70;-15.25;-60.77
-288.26;58.04;176.31;-40.51;-8.82;-73.62
-137.54;88.64;243.17;23.20;4.90;-50.31
153.33;95.07;167.38;29.62;7.30;-22.11
183.93;30.60;94.96;27.99;-3.92;-48.68
40.51;-119.25;-11.43;2.29;-8.82;-18.08
-69.04;-60.44;-2.61;5.44;-0.76;61.75
-130.24;58.04;16.77;27.22;21.02;145.49
-205.28;40.29;-62.94;-6.64;12.96;164.00
75.90;55.54;-33.98;-0.98;12.96;122.95
47.81;4.79;7.95;28.86;-2.40;56.08
-74.71;-64.47;11.11;19.93;4.90;0.44
-121.42;-115.98;-45.30;11.11;9.69;-12.41
-225.31;-87.01;-10.67;-46.06;-16.01;-43.89
-73.94;1.63;76.34;-89.62;-28.10;-85.70
34.85;46.72;18.40;-65.45;-20.04;-83.31
127.52;85.38;-8.17;-0.98;13.72;-24.50
137.98;56.41;8.71;21.56;-3.92;-49.44
-3.81;27.44;146.47;-23.52;-20.91;-23.74
102.58;-38.66;149.74;11.11;10.56;28.64
16.33;-107.92;161.83;40.95;22.65;39.10
100.95;-50.75;102.15;48.13;4.90;41.60
102.58;-45.96;-16.23;61.09;17.75;67.30
-50.53;4.79;-91.15;35.28;-2.40;28.64
-202.77;-24.18;-64.58;3.05;9.69;20.58
-155.29;-16.12;-127.41;-9.04;-12.85;-14.81
-122.19;174.78;-75.03;-38.88;-11.98;2.07
41.27;202.99;0.65;-65.45;-28.10;-45.41
-50.53;4.03;-39.64;-13.83;-24.07;-61.53
-61.86;-8.06;-16.23;-1.74;-3.16;-73.62
60.66;-182.08;-30.82;-28.42;-5.55;-88.97
96.92;-136.12;28.86;-9.04;-7.19;-88.21
-116.63;0.00;-15.46;10.35;13.72;-35.83
-127.85;28.21;-42.04;7.08;38.77;14.92
-59.35;37.03;-62.94;-21.89;24.18;-1.96
-137.54;95.83;-75.90;-35.61;-5.55;-34.96
-202.77;19.38;-66.97;-16.33;-9.58;-25.37
81.57;70.13;9.47;11.11;29.84;58.48
104.11;-30.60;-17.86;8.71;30.71;70.57
-181.10;-290.00;-51.73;-16.33;-16.01;-5.23
-125.45;-244.15;11.98;-4.25;-18.51;2.07
34.09;4.79;65.88;-0.22;-24.07;-40.62
-184.26;143.42;71.55;15.90;-19.28;-73.62
-151.26;139.39;-1.74;39.31;-28.97;-79.28
-29.62;186.87;23.20;75.58;8.17;-20.47
188.72;-37.03;29.62;80.37;22.65;50.42
323.32;-198.96;84.40;92.46;19.38;72.20
17.97;-99.10;177.07;68.28;10.56;86.68
-85.16;65.23;76.34;42.47;-15.25;90.71
-119.79;120.88;20.80;10.35;-7.19;126.11
-4.57;5.66;-28.31;-29.95;0.11;101.93
132.31;66.10;-65.45;-19.49;14.59;92.35
241.10;107.16;-62.94;-47.70;10.56;10.89
161.39;58.81;-86.36;-77.54;7.30;-10.78
-151.26;83.74;-56.52;-92.02;3.27;-33.32
-169.01;157.90;-131.44;-91.26;3.27;-59.13
-99.64;-8.06;-258.75;-83.96;-19.28;-36.59
-179.47;-71.66;-224.99;5.44;-5.55;-56.74
-160.08;41.93;-58.15;-3.38;4.14;-99.43
-221.28;-198.96;-12.20;40.95;4.90;-89.73
80.80;-265.06;-59.79;58.59;20.15;-27.77
272.58;-73.29;-60.55;27.22;26.68;56.08
71.11;-57.17;6.32;2.29;15.35;66.54
-29.62;-20.91;153.77;-38.01;-2.40;39.10
-133.51;-46.72;50.64;-52.60;-20.91;6.10
11.54;78.19;24.07;-16.33;-8.82;18.19
-79.50;53.14;11.98;0.65;-24.94;-50.31
-72.31;-9.69;16.77;2.29;-20.91;-41.38
-99.64;28.97;30.49;18.40;-12.85;-33.32
-61.86;1.63;4.68;-13.83;-15.25;-64.03
-151.26;-8.82;-9.04;23.96;-16.88;-56.74
-16.66;24.18;-0.98;23.20;-6.43;-3.59
80.80;29.84;-22.76;13.50;13.72;30.27
-25.59;97.47;-11.43;6.32;16.99;36.70
189.59;48.35;28.86;7.08;7.30;-1.96
162.15;31.47;70.78;22.43;5.66;-16.44
58.26;30.60;71.55;6.32;-8.82;-56.74
-34.41;57.17;19.17;4.68;1.63;-25.37
3.48;136.12;24.83;36.92;39.53;-0.33
-22.32;-40.29;-0.98;22.43;33.87;29.51
217.80;-240.12;-65.45;-0.22;12.20;104.44
-182.63;-276.39;-119.35;-4.25;-5.55;95.51
14.70;-93.44;30.49;19.17;4.14;95.51
-150.39;44.32;76.34;11.87;-6.43;62.51
-14.27;68.50;130.35;-2.61;-20.91;3.70
25.16;76.56;45.74;-12.31;-10.45;-23.74
47.81;85.38;-0.11;41.71;10.56;-13.29
-24.72;57.17;-93.65;58.59;-5.55;-18.08
-35.17;43.56;-170.10;22.43;-20.91;-30.93
-44.10;31.47;-262.01;-56.63;-36.15;27.01
-24.72;0.00;-185.46;-76.67;-22.54;18.19
-15.90;-16.12;-95.18;-82.33;-16.01;-36.59
-27.22;-16.88;-15.46;-34.85;4.90;-73.62
-3.81;-45.08;24.83;-3.38;17.75;-31.80
22.00;-36.26;50.64;15.14;19.38;9.37
-42.47;-20.15;127.96;35.28;12.96;16.55
-190.68;-29.84;127.96;2.29;13.72;-3.59
-114.24;-45.96;86.03;-1.74;8.93;27.88
-151.26;-145.05;24.07;-2.61;4.90;-19.71
-106.94;-67.63;7.08;36.92;20.15;-2.72
54.99;84.62;-8.17;36.92;-9.58;3.70
3.48;177.29;-58.15;1.42;-7.19;9.37
60.66;143.42;-26.79;10.35;-11.98;27.01
132.31;160.30;16.01;23.20;-15.25;23.85
191.12;22.54;6.32;42.47;-13.61;10.89
158.89;-24.18;24.83;55.43;-11.98;-5.99
92.89;7.30;107.81;15.14;-5.55;17.42
80.80;16.12;173.91;-70.24;-28.97;6.86
79.17;-101.49;-11.43;-104.87;-28.97;25.48
114.67;-89.41;-98.45;-55.76;6.53;-0.33
-75.47;-30.60;-135.47;-34.85;-20.91;-28.53
-306.77;-122.51;-137.11;-17.10;21.78;-31.80
-151.26;-44.32;-105.74;-13.83;8.93;-11.65
179.03;18.51;-75.03;11.11;-7.95;-25.37
-277.69;-12.85;-138.74;14.37;4.90;-12.41
-77.97;25.81;-120.99;29.62;25.81;31.91
-45.74;37.03;-4.14;26.35;19.38;-6.75
-60.22;20.91;140.81;20.80;2.50;-44.65
-99.64;-42.69;153.77;19.93;-16.01;-72.09
-174.57;-71.66;36.92;11.11;-10.45;-60.77
-66.65;56.41;56.19;36.92;-8.82;-34.96
16.33;82.22;69.15;52.16;16.23;23.85
173.48;132.97;21.56;36.92;-12.85;33.54
186.33;131.33;24.83;22.43;0.87;44.76
148.43;-61.20;-18.73;-17.86;-34.63;-5.23
-51.29;-219.11;4.68;-34.85;-5.55;-0.33
-23.96;96.70;92.46;-7.41;20.15;36.70
-57.83;46.72;45.74;-9.80;28.21;56.85
-200.38;71.66;7.08;-19.49;19.38;78.63
-69.91;9.69;-52.49;-25.16;4.90;78.63
261.25;6.43;-104.11;-4.25;-20.91;49.66
9.04;-149.08;-218.45;-13.83;-5.55;-25.37
13.94;-224.77;-216.93;-22.76;-10.45;-76.12
42.14;-200.59;-48.46;-19.49;14.59;-55.10
-11.11;-98.34;77.21;-23.52;-8.82;-18.08
106.61;99.10;71.55;11.87;10.56;-24.50
-152.02;112.82;70.78;38.44;-7.95;-13.29
-45.74;188.51;73.18;41.71;15.35;39.97
-65.88;94.31;97.36;23.96;-0.76;54.45
50.20;109.55;127.96;-9.04;-2.40;58.48
10.67;134.60;72.31;-40.51;-3.16;10.89
-44.10;68.50;33.65;-66.21;4.90;40.73
-36.05;-196.56;-5.01;-36.48;3.27;22.98
-34.41;-166.73;-134.71;-28.42;39.53;57.72
1.85;-50.75;-153.22;18.40;21.78;44.00
-21.56;-19.38;-96.05;58.59;19.38;49.66
26.79;30.60;-88.75;51.40;25.05;14.92
13.94;13.72;-36.37;11.11;-8.82;-68.82
-60.22;-87.01;23.20;26.35;-26.57;-127.63
12.31;-144.18;127.96;11.11;-20.91;-76.12
139.61;-28.97;81.24;12.74;-15.25;-83.31
129.16;118.48;75.58;3.81;-16.01;-69.59
-269.64;234.46;53.03;7.08;-13.61;-37.35
-106.94;202.23;26.46;37.68;13.72;2.07
185.57;96.70;-52.49;-6.64;16.99;2.07
245.13;-85.38;-82.33;-10.67;7.30;20.58
125.13;-49.99;-148.43;-52.60;-11.98;45.63
-173.80;-4.79;-129.92;-42.91;5.66;38.33
-164.98;226.40;-26.79;-14.70;-3.92;-23.74
-331.71;120.01;-4.14;-10.67;-20.91;-62.40
-214.86;-171.63;20.80;-25.92;-11.98;-30.93
-124.69;-422.97;25.59;-29.19;19.38;19.82
-146.36;-422.21;-22.76;-39.64;4.90;31.91
-48.13;-61.20;23.20;-30.82;4.14;65.67
471.54;104.76;13.50;-18.73;6.53;54.45
220.96;143.42;37.68;-9.80;4.14;1.31
-0.54;20.91;3.05;19.93;10.56;-58.37
-124.69;-40.29;-22.76;26.35;-5.55;-80.15
-168.14;78.95;20.04;13.50;-26.57;-44.65
-79.50;148.21;50.64;45.74;6.53;-6.75
75.14;129.70;61.86;13.50;8.17;13.39
274.97;111.95;76.34;51.40;20.15;27.88
287.06;48.35;50.64;16.77;-41.82;38.33
312.87;-16.12;-0.98;32.02;-24.94;49.66
129.92;-60.44;-10.67;29.62;4.14;60.88
-47.26;-24.18;46.61;27.99;9.69;49.66
-168.14;-8.06;105.42;10.35;16.23;33.54
-297.08;-8.06;50.64;-28.42;6.53;6.10
-143.97;-34.63;-89.62;10.35;29.08;4.46
25.16;57.17;-114.56;-13.83;22.65;-21.34
-22.32;0.00;-17.86;-38.88;-24.94;-49.44
-50.53;-30.60;-24.28;-16.33;-20.04;-34.19
10.67;-52.38;-22.76;15.14;-19.28;-19.71
-99.64;-57.17;-78.30;32.02;13.72;30.27
-112.60;-128.07;3.05;36.05;12.20;38.33
-208.43;-37.90;65.12;40.95;10.56;53.69
118.70;80.59;63.49;63.49;4.90;36.70
171.84;108.79;16.01;35.28;21.78;38.33
90.50;94.31;-44.43;-14.70;8.17;23.85
-1.42;62.07;-78.30;-62.18;-19.28;-22.11
5.88;14.48;-42.04;-15.46;-12.85;-49.44
-49.77;-15.35;-27.55;-30.82;-20.91;-41.38
-35.17;-33.87;11.11;-24.39;-18.51;-76.88
-69.91;-35.39;50.64;-19.49;-18.51;-114.78
-42.47;-48.35;77.97;-15.46;-12.85;-124.36
33.21;-18.51;53.03;0.65;-18.51;-98.66
17.10;-7.30;32.89;36.92;-18.51;-54.34
67.84;20.91;14.37;15.14;21.78;44.00
25.16;-15.35;20.04;11.11;9.69;39.10
-86.03;-96.70;-72.64;-36.48;-7.19;48.79
-172.17;26.57;-65.45;2.29;18.62;74.60
-211.70;134.60;-8.17;-1.74;25.81;27.88
-79.50;194.93;-16.23;-29.95;0.87;-44.65
45.30;49.11;65.12;-25.16;1.63;-18.08
194.39;-35.39;24.83;22.43;12.20;11.76
418.39;-123.27;-45.30;32.02;10.56;79.39
179.90;-95.83;-25.16;16.77;1.63;105.96
-95.61;57.17;17.53;9.47;-16.88;105.96
-147.23;49.99;85.27;-2.61;-10.45;103.56
-110.21;-82.98;28.86;20.80;19.38;81.78
21.13;-186.11;67.52;21.56;16.99;40.73
98.55;14.48;202.88;23.20;23.41;-9.26
22.00;11.33;194.82;6.32;-19.28;-91.37
73.51;25.81;149.74;-14.70;-22.54;-97.79
-99.64;88.64;11.11;-22.76;-20.91;-88.97
-134.27;66.10;-186.22;-34.85;-9.58;-55.97
119.46;31.47;-257.98;-45.30;-7.19;-66.43
-48.13;67.63;-199.18;-18.73;8.93;-44.65
-8.60;48.35;-215.30;-37.24;7.30;-38.22
-119.03;57.17;-148.43;3.81;30.71;-14.81
117.83;124.91;3.05;5.44;60.44;24.61
119.46;-49.99;42.58;69.91;51.62;-14.05
76.77;-79.71;76.34;55.43;-12.85;3.70
30.06;-149.08;-22.76;24.83;-24.94;31.91
41.27;-177.29;-16.23;0.65;-42.69;17.42
34.85;-111.95;35.28;-1.74;-21.67;-23.74
97.68;11.33;65.12;16.77;4.14;6.10
31.69;122.51;24.83;2.29;-10.45;-18.84
25.16;-123.27;-175.76;-46.06;-5.55;-15.68
-190.68;11.33;-164.55;-54.99;10.56;19.82
-173.04;107.92;-52.49;-67.84;26.68;27.88
-254.39;31.47;16.01;-61.42;8.17;40.73
-139.94;-28.21;79.61;5.44;16.23;63.27
36.48;6.43;153.77;39.31;25.81;53.69
131.55;-12.09;133.62;19.93;23.41;39.10
125.13;48.35;104.54;20.80;6.53;-25.37
-90.06;55.54;77.97;32.89;-20.91;-86.58
-164.98;-66.86;30.49;3.05;-22.54;-86.58
-103.67;-58.81;63.49;6.32;4.14;-14.81
55.87;-114.45;41.71;15.14;22.65;27.88
57.39;-64.47;60.22;-5.77;10.56;4.46
29.19;-12.09;-35.61;-33.98;-19.28;-47.92
53.36;27.44;-62.18;-30.82;-42.69;-44.65
-37.68;55.54;-38.01;-7.41;-19.28;-12.41
-225.31;33.87;-15.46;11.11;-10.45;18.95
-228.58;61.20;-17.10;23.20;-2.40;28.64
133.95;88.64;-27.55;3.05;-3.92;39.97
261.25;65.23;-25.92;27.99;-7.19;38.33
139.61;94.31;36.05;30.38;4.90;39.97
129.92;167.60;3.92;34.41;5.66;61.75
98.55;134.60;-61.42;65.88;-2.40;64.14
175.00;171.63;14.37;81.24;-2.40;51.18
-30.38;174.78;184.37;70.68;-5.55;9.37
-277.69;-169.23;286.62;45.74;-11.22;-24.50
-150.39;-329.53;206.91;49.00;16.23;-38.99
105.74;-360.13;76.34;-31.58;32.23;-5.23
325.72;-58.81;98.12;-33.21;55.65;-0.33
110.64;-40.29;-96.81;-72.64;41.16;-16.44
-55.32;-7.30;-261.14;-166.94;12.20;-21.34
-174.57;-14.48;-369.17;-220.96;-20.91;-36.59
38.11;-20.15;-390.08;-184.69;-33.00;-34.96
-102.15;-62.07;-259.62;-66.21;-41.82;-38.22
-32.78;41.93;-5.01;44.98;-8.82;3.70
130.79;88.64;-12.20;36.92;3.27;16.55
96.05;43.56;-76.67;14.37;-20.91;7.73
-56.19;57.17;11.11;54.56;17.75;28.64
-84.40;72.53;52.16;63.49;7.30;52.05
-210.07;16.88;82.00;46.50;17.75;29.51
-257.55;-41.06;136.02;-0.22;0.11;-10.78
29.19;-12.09;153.77;23.96;10.56;-48.68
