MAV,ZC,SSC,WL,VAR,IEMG,RMS,Label
0.7656268760039427,34,103,91.67491673616722,0.8768537741731343,191.40671900098567,0.9364047085159856,0
0.3227327859689718,72,129,72.54765527346986,0.1676876022309689,80.68319649224297,0.4096053838787102,0
0.2335159219624986,102,143,69.35570407272998,0.0891080143228797,58.37898049062467,0.2986432800372469,0
0.2400889504811324,97,136,68.75394333006253,0.0933578639222738,60.02223762028311,0.3055683898048841,0
0.2109456877891815,103,137,65.35337310080226,0.0695026484129153,52.73642194729539,0.2636579846547714,0
0.2507086148810303,96,139,70.07690561698894,0.0931537650614876,62.67715372025759,0.3052177061389848,0
0.2396643235889006,106,142,68.85169500653689,0.0870105831747115,59.91608089722515,0.294976653597406,0
0.2193649069772165,104,154,65.23564587915124,0.0771218003872329,54.84122674430412,0.2777104823266584,0
0.2361832056154776,102,145,65.52122616647154,0.0913591209203802,59.04580140386942,0.3023280802534986,0
0.2557361841164746,93,147,76.45985097050891,0.1107486365808971,63.93404602911864,0.3327904823081196,0
0.2265038035526289,95,149,66.78040111054715,0.0813781885521318,56.62595088815722,0.2852983973387352,0
0.2350589471498479,104,150,66.99291259779392,0.0903353753922241,58.76473678746199,0.300573190475365,0
0.2096970458670716,109,144,65.13529170299834,0.0739271257741867,52.42426146676792,0.2718990898822765,0
0.2354130572277465,101,151,70.32905907852836,0.085302080342391,58.85326430693664,0.2920652463275839,0
0.2464717842679608,87,141,66.80842569340119,0.0976911506170405,61.61794606699021,0.3125631830329334,0
0.2382188036650208,90,150,68.91367898034571,0.0874350091358809,59.5547009162552,0.2957792792642313,0
0.2490662004563817,112,146,73.27339913948614,0.0964108176287368,62.266550114095445,0.3105145372401146,0
0.2531246726241563,107,142,75.64638561460188,0.1057304251712655,63.28116815603909,0.3251693932695259,0
0.2385110383693715,105,148,73.57293029011821,0.0875963578840347,59.62775959234287,0.296036242521151,0
0.2578792176921978,90,144,73.42849387276912,0.1020764025407118,64.46980442304945,0.3194966298997851,0
0.2583212253062114,97,136,72.18043591229042,0.1238975652742694,64.58030632655286,0.3519908973790195,0
0.2561042089519779,88,128,64.2633798792973,0.1146565829276674,64.02605223799448,0.3386099183643526,0
0.2601078023931302,85,136,63.14694223316479,0.1146112768949493,65.02695059828257,0.3385520675458305,0
0.3147125058023513,70,139,69.0591120003605,0.1597007011275969,78.67812645058781,0.3997499310056716,0
0.4165317248269079,67,128,87.03475784903226,0.3077170208797191,104.13293120672698,0.5547250239672926,0
0.4322463325888058,75,124,88.98058150894,0.2999672116842574,108.06158314720145,0.547772527607799,0
0.4306240653160559,64,118,85.59402102872508,0.3021624423186067,107.656016329014,0.5496949454691592,0
0.3560659308534455,77,130,81.7633253507845,0.2229032544918809,89.0164827133614,0.4721570746772237,0
0.3772648591603991,70,126,80.6138848979829,0.2537763393822655,94.3162147900998,0.5037641142530745,0
0.2979243061130426,88,141,70.42437419762135,0.1825811329509945,74.48107652826064,0.4273828230599443,0
0.7955642487386179,62,95,149.8543081881171,1.1371669521918062,198.8910621846545,1.0664256727513834,0
0.7832803041016809,59,103,151.59863178668115,1.2066085349203324,195.82007602542024,1.0986582543750214,0
0.7497702247511869,66,124,159.37018819790492,0.9527183977420286,187.44255618779675,0.976114685341195,0
0.763313418596167,70,115,158.13154297510494,1.186121175775542,190.82835464904176,1.089112320774518,0
0.5548165025381868,74,115,116.73645924559888,0.5935165324186442,138.7041256345467,0.7704002664056859,0
0.531150891912477,70,110,110.99365727775746,0.4802507245347837,132.78772297811926,0.6931372387911503,0
0.7607984303978926,62,97,133.43116409613205,1.0638728199455836,190.19960759947315,1.0315185947529362,0
1.684371748941606,57,101,296.1488642628631,5.109477841137754,421.0929372354015,2.260417083239965,1
3.3514671787568573,58,101,571.9033894686445,19.04946669079271,837.8667946892143,4.366545038400873,1
6.2345365513178255,57,92,1144.578649618206,63.03538774728752,1558.6341378294564,7.939591475905076,1
5.654042100890127,60,103,1143.7073190087608,49.75560611188343,1413.5105252225317,7.054015120418135,1
4.708433008630198,69,105,940.9451023529866,33.97007177149397,1177.1082521575495,5.829216306478521,1
3.694844758796624,68,102,762.5106441098021,20.80148860799876,923.711189699156,4.560965998286087,1
3.478268995647141,72,96,713.5552607721934,18.48107769903531,869.5672489117853,4.2995115820731575,1
3.1805258453392544,64,102,644.1860437605498,15.692243204032344,795.1314613348136,3.962081334968862,1
3.3630299964366106,57,92,617.9468104487315,17.117052475715525,840.7574991091526,4.138020989856181,1
3.2598191825921465,58,87,597.5655788952163,16.73107767177648,814.9547956480367,4.090400136607455,1
2.6127574592061373,63,98,479.32291444692135,10.306287579403213,653.1893648015343,3.2104997347568918,1
2.5253751897657857,65,104,502.40034822474433,10.080714529906412,631.3437974414464,3.1751170402586486,1
2.747233325855801,65,94,515.6786476469804,11.81394867860432,686.8083314639504,3.437456444243689,1
2.5134170678017145,66,100,463.59904343729886,9.648640286478782,628.3542669504286,3.1063006558846498,1
2.5090853016643124,61,107,479.2356451461642,10.26330478887698,627.2713254160781,3.203646247642525,1
2.423750629844976,62,103,471.9283519257758,9.347189928572048,605.9376574612438,3.05732171193793,1
2.7239442194394963,62,89,537.5362266560694,11.468916479527648,680.9860548598741,3.386870975233644,1
2.462592935570113,66,100,485.74302803510295,9.469388345493565,615.6482338925282,3.077750693029959,1
2.350081692225024,63,96,463.1422872340743,8.944841201065843,587.5204230562559,2.991028834350581,1
2.5257941505657557,66,93,500.6823727889311,10.838847923155985,631.4485376414389,3.2922775274768967,1
3.302571566729451,54,92,581.2073882061411,20.62176814033289,825.6428916823627,4.541153308377621,1
3.1173038500323464,49,101,542.2288801556597,15.519664972051736,779.3259625080866,3.939508746848674,1
3.1365852401419434,46,94,488.30897343000606,16.1649879070126,784.1463100354858,4.021943052629199,1
2.885718822626561,43,78,439.988984586841,15.208657588839827,721.4297056566402,3.900191825058565,1
2.484337570091767,51,85,392.92950401326345,10.82984612154983,621.0843925229418,3.29287966992908,1
2.8794665015933645,46,99,445.0242038909074,18.76929626505032,719.8666253983412,4.332510012722574,1
2.245915108460631,44,92,338.18929806681587,11.47952990884965,561.4787771151578,3.388160212802311,1
1.2273869599881135,56,106,219.77713615832187,2.7940697406950363,306.8467399970284,1.6718147134734045,1
1.4204784869768583,61,99,261.16566084169926,3.4055447212250938,355.11962174421456,1.8454140109102304,1
1.4036261397439604,52,101,270.2723923877718,3.1694239457333544,350.9065349359901,1.780302840257224,1
1.10525602514558,69,106,228.3254994598086,2.1357996751627053,276.31400628639494,1.4614896559025563,1
1.0855209589666244,59,101,210.6942890713129,2.054815041200127,271.3802397416561,1.4334690616954544,1
0.8072404794744219,70,118,176.92501400589225,1.0780384745543696,201.81011986860548,1.0382867155523263,0
0.7782906168347882,78,112,176.6716676205201,1.0556027608749874,194.57265420869703,1.0274321590276685,0
0.7248020156471855,77,120,156.38638473214166,1.0737944015489724,181.2005039117964,1.0364636444316455,0
0.6552256179400054,76,118,150.3570901531316,0.7806528510083351,163.80640448500137,0.8835506518588863,0
0.5864927153077037,69,107,136.8095905756274,0.7465786525551014,146.62317882692594,0.864048364653658,0
0.6038298961119178,72,105,128.72403420132267,0.7533704148624328,150.95747402797946,0.8679783611188235,0
0.5305120394044565,80,111,124.60385265354252,0.5308087974541253,132.62800985111411,0.7286583394610793,0
0.5054804734134138,78,125,113.60252849067533,0.4533065764765923,126.37011835335346,0.6736012035149084,0
0.4756617261625629,70,126,110.58113750400182,0.4636844133412717,118.91543154064072,0.6809756942278813,0
0.5426611779077896,74,113,119.3128235861889,0.61144547168645,135.6652944769474,0.7819704117460272,0
0.403872309344351,96,134,102.85456744070665,0.2988900808087822,100.96807733608776,0.5467233089202931,0
0.4223403140569245,89,142,109.89954614563868,0.345073390541223,105.58507851423114,0.5874326125409305,0
0.4522035852287167,73,123,105.3934574297506,0.4194560072415619,113.0508963071792,0.6477189806849247,0
0.4690878822992942,79,127,113.418369832113,0.4280233958654796,117.27197057482356,0.6542773112852127,0
0.4073175944848225,78,134,103.09784973064797,0.3059108739422831,101.82939862120564,0.5530977388369329,0
0.4732838343920961,75,124,113.11879880495157,0.4586549437928043,118.32095859802402,0.6772472066014339,0
0.5267207399346918,62,115,116.78909694767668,0.5272015108582438,131.68018498367294,0.7262034852782335,0
0.523591433676625,70,123,118.91041409604668,0.5165736186671301,130.89785841915625,0.7188322275482801,0
0.5045071161076641,78,131,113.87549170305655,0.4777817343523143,126.126779026916,0.6913637944614767,0
0.4971690669284827,84,133,107.48835391715556,0.5203061050108981,124.29226673212068,0.7213256598971285,0
0.4916738987430744,76,120,114.32393600691832,0.4858380489728463,122.91847468576862,0.6970959523781665,0
0.5090388870137192,75,123,119.26000917952166,0.5314477605781203,127.25972175342982,0.7291170548845698,0
0.4842360714710638,64,118,108.91197064521911,0.4257429581944565,121.05901786776596,0.6525205369984773,0
0.4916605047775408,82,123,118.31269711147834,0.5345528167343478,122.9151261943852,0.7311340386611898,0
0.5227106333831,72,118,119.13128984417816,0.4888456031950204,130.677658345775,0.6991972624433426,0
0.4488789359593408,81,129,109.2822914431393,0.3551212301039786,112.2197339898352,0.5959420964159138,0
0.4257602654407792,77,134,106.19483897125556,0.3628575474756142,106.4400663601948,0.6023817841855014,0
0.3923076419756219,81,132,101.7156335950853,0.3195058281892198,98.07691049390549,0.5652676478171442,0
0.4824320434723083,86,124,114.056246883451,0.4387911171466472,120.60801086807707,0.6624166577546632,0
0.4470875219470334,80,125,108.11707298279,0.3891502384792778,111.77188048675836,0.6238738335826625,0
0.4502314113970715,69,125,99.8054928710556,0.3372327683700474,112.55785284926787,0.5807176519071566,0
0.5901227953874638,68,121,115.82209004611828,0.676507634586449,147.53069884686596,0.8226723008484568,0
1.5741382473100962,51,88,230.4280416154527,4.63653246452665,393.534561827524,2.154137205229152,1
3.1491113477949564,61,97,592.9313794311445,16.962361499571934,787.2778369487392,4.118545571956951,1
3.403463095802377,64,99,689.4298899648518,19.82127044560752,850.8657739505944,4.452110388912459,1
3.331568303471041,71,109,675.052077718202,20.76254463626289,832.8920758677604,4.556747025845943,1
2.6598871280737937,69,105,511.4336381832953,11.881024667193811,664.9717820184484,3.4477736515434896,1
2.704207907911343,55,97,487.9050104493746,12.083681462369707,676.0519769778357,3.4761596430189385,1
2.2021568495365047,66,92,413.9037091038073,8.265683627362707,550.5392123841261,2.875031873027589,1
1.928620557961661,62,86,369.5087105191748,5.951812026511414,482.1551394904153,2.4397034309292107,1
1.9004547319064011,58,89,349.27566824947587,6.0769641101581655,475.11368297660033,2.465207267142701,1
1.9066755491111,58,96,332.981502024775,6.158228313873741,476.668887277775,2.4815779928299904,1
1.7548421597123416,60,93,341.6229798161421,5.254681005442222,438.7105399280854,2.2931157453524738,1
1.7398941888847377,59,104,315.20374572805554,5.11381451194609,434.9735472211844,2.2614478599294867,1
1.5982857402910329,57,92,289.5441306176268,3.953033924309465,399.5714350727582,1.9882271720113769,1
1.6603717742007882,61,100,303.76734244929526,4.637417892786993,415.09294355019705,2.153472113482828,1
1.6830793992209685,58,106,312.15661570481683,4.551233598502988,420.7698498052421,2.1342229046877685,1
1.4947386203208688,64,96,276.3708486101274,3.685237047687703,373.6846550802172,1.9197664251269089,1
1.3901316280282363,73,91,273.6192244417342,3.0769023510703484,347.53290700705907,1.7543188722996288,1
1.3476259470197876,54,96,252.39490291146504,3.0482899141403794,336.9064867549469,1.7459564239768073,1
1.4205292968149563,64,99,262.6503534705415,3.4761692602322736,355.1323242037392,1.8645086625876337,1
1.451423758554465,56,101,262.24599783505283,3.5169712509209603,362.8559396386162,1.8753704517907857,1
1.4897586485078342,50,96,244.8563234503684,3.892367651148455,372.4396621269586,1.9729879883883712,1
1.1966276402099498,58,99,217.42633065015843,2.2484550177461906,299.15691005248743,1.500310900392066,1
1.2996417159943503,54,104,232.5071562915237,2.6025623883629234,324.9104289985876,1.613520342382759,1
1.031657795085283,60,101,197.95003023217453,1.8893822508887024,257.91444877132074,1.3745609549977755,1
1.2020015735711482,63,101,231.2179130695449,2.317188217506273,300.50039339278703,1.5222596989940889,1
1.306116206682148,59,114,246.8690830810203,2.805991992197566,326.529051670537,1.6751626204391172,1
1.3761003635821696,67,105,273.3830744480623,3.138870489606293,344.0250908955424,1.771690224068961,1
1.089544578378103,71,111,223.7533060848703,2.009935218547574,272.3861445945258,1.4179765178597064,1
1.3081360253187555,56,101,240.30876352017805,2.7836736683533583,327.03400632968885,1.668436481601873,1
1.4036348709189612,61,100,249.44555287242247,3.680341322152388,350.9087177297403,1.9185562380209704,1
1.472717567264445,44,109,210.9939253455522,4.750017200624096,368.17939181611126,2.17949108499349,1
0.8832423971954187,55,93,167.74980140825926,1.394399653165315,220.8105992988547,1.1808564387420326,1
1.0832100495827903,63,90,214.76030549144232,2.2076601854709432,270.8025123956976,1.4858255329286845,1
1.1320241131816715,51,99,211.0194098203712,2.095051323633548,283.00602829541793,1.4476800523139235,1
0.9658501408280592,68,105,196.43795598600911,1.6158696627379625,241.46253520701484,1.2711838630170702,1
0.727394422629962,64,108,153.86037989182222,0.96337765610545,181.8486056574905,0.9821664127002284,0
0.6839253646824318,72,117,135.6851747389933,1.0517597205573452,170.98134117060795,1.025580910962568,0
0.5835835188178651,64,119,124.05113057754464,0.627400570287143,145.89587970446627,0.7921075668932157,0
0.6894122607223317,70,112,150.6710344166456,0.8712906751816761,172.35306518058297,0.9334412341662344,0
0.6683517047398321,68,102,145.43708134046597,0.7821608663925479,167.087926184958,0.8844008255434535,0
0.6058410172485744,66,128,133.38089205354845,0.651951122447545,151.4602543121436,0.8074941539660739,0
0.6894306371828444,74,120,144.8177489967013,0.8684523567325074,172.3576592957111,0.9319248683913904,0
0.6462875624334544,75,123,151.75080228594257,0.7087196556966286,161.57189060836362,0.8418562671246068,0
0.6378874542199885,70,110,136.55206439586152,0.6778042131563391,159.47186355499713,0.823403593029867,0
0.7324815878875589,67,105,153.63663695565765,0.8871728663559802,183.12039697188973,0.9419109236607424,0
0.7129662831332256,69,110,150.79326789291497,0.8732792646749312,178.2415707833064,0.9345288438917396,0
0.6710723946120742,72,121,145.88410623544215,0.8132633640384579,167.76809865301857,0.9018169964547312,0
0.5307108950659291,75,122,114.97932652552136,0.5184174799598056,132.67772376648227,0.7200333264494395,0
0.5067813630608261,78,114,110.51095896378864,0.5347248713883367,126.69534076520654,0.7314649255234628,0
0.551513805333246,74,123,131.080499762211,0.5575830984685071,137.8784513333115,0.7467203147872038,0
0.5270542562864314,82,133,127.84376998146166,0.4887058732570774,131.76356407160785,0.6990778633964374,0
0.4703099363586145,82,127,113.11825110878912,0.4633479581541463,117.57748408965364,0.680702899829201,0
0.4357395059471365,89,132,107.87161866261214,0.3709732238755611,108.93487648678412,0.6090784620042443,0
0.3953591465467499,81,129,97.392819688967,0.2735137502308649,98.83978663668748,0.5229901732086667,0
0.444624279142796,66,119,97.77572269634904,0.3640970903050278,111.156069785699,0.6034045959459087,0
0.395227439688821,79,129,97.84800789251148,0.3068842751137647,98.80685992220526,0.5539721316022181,0
0.3524804737487977,84,120,85.53714559595399,0.2186173699239312,88.12011843719942,0.4676108760969019,0
0.3457973530368334,90,127,90.62635025944424,0.2259252506239288,86.44933825920836,0.4753569273992689,0
0.4102763454502309,79,122,91.83080050805812,0.3065347492679118,102.56908636255773,0.5536662356945414,0
0.4786539334710532,69,122,100.9094134715348,0.4371896683447911,119.66348336776328,0.6612144377038063,0
0.4057480136144133,82,131,94.21861828319972,0.3156080221219842,101.43700340360331,0.561803298192411,0
0.450490092377952,66,113,95.03809513092588,0.3612138463454321,112.62252309448802,0.6010642682385469,0
0.3772982605772345,88,120,89.38357924832005,0.2969751452115549,94.32456514430862,0.5449681654249035,0
0.3571956841340643,89,130,94.51889336479243,0.3137540375417563,89.29892103351608,0.5601393506565262,0
0.3543159346901375,74,132,84.94375151366465,0.2278468944619938,88.57898367253439,0.4773479881969666,0
0.3466416369858565,88,131,89.72486607416195,0.2177885842658289,86.66040924646413,0.466678315082783,0
0.366106510555391,83,128,92.1184210779937,0.3252020112484051,91.52662763884776,0.570279704724612,0
0.40818375043869,74,113,90.87298417576211,0.3280363342402884,102.04593760967248,0.572929853065479,0
0.3929193535342917,78,119,90.06831652094445,0.3245446838483183,98.22983838357294,0.5697068898775637,0
0.4196474823965631,85,128,97.8739583628014,0.3487314127092895,104.91187059914078,0.5905350493040661,0
0.4099727606564843,68,129,94.80859679992972,0.3603317095944745,102.49319016412107,0.6002934846847685,0
0.375306318204346,85,130,92.18219217898988,0.2853723000554485,93.8265795510865,0.5342084263143189,0
1.120215931869612,60,108,196.64248433758823,2.929717241454523,280.053982967403,1.712714247312252,0
2.957237988482153,51,84,485.1385757931934,13.6499987475209,739.3094971205383,3.694827130809412,1
3.2387404170859138,57,107,623.9890745236639,17.01861598909946,809.6851042714784,4.125362901349166,1
2.778275213254711,65,107,581.4329203666822,12.530229726226976,694.5688033136778,3.539939479334972,1
2.6389757239024068,60,99,510.85922265871386,10.970053054034,659.7439309756016,3.312224971913303,1
2.365220963009432,61,100,474.6756607746212,9.060951923415834,591.3052407523579,3.010673901148472,1
2.4562400929815986,56,104,441.2011788356689,9.318489982388206,614.0600232453996,3.0528900613599146,1
2.0159468274540844,73,102,418.1248941361281,6.614687694414841,503.9867068635211,2.572128435344933,1
2.2803515183095806,59,91,422.7895772910846,7.982272329401711,570.0878795773951,2.825314089743774,1
2.2155591802929138,58,99,422.679661813964,7.460000711158111,553.8897950732285,2.7313683880576347,1
2.0956885723174583,49,101,385.1895003507507,6.940942551870765,523.9221430793646,2.63460896367119,1
1.741915494753292,74,105,368.2705308477165,5.489992016818047,435.478873688323,2.343076097180025,1
1.6401905728460513,78,108,365.32343943118246,4.519101411396601,410.0476432115128,2.1262151456949376,1
1.8738139494026045,59,92,345.1389719362647,5.377534327894929,468.45348735065113,2.31930037274149,1
1.7458667133598862,53,108,305.3485570777309,5.17612606242291,436.4666783399716,2.275343847896237,1
1.645357813564163,70,101,331.3917167573736,4.414541782099263,411.3394533910408,2.101318363492928,1
1.711467880979039,62,93,319.3602725502472,4.725847389520444,427.8669702447597,2.173901485358452,1
1.82927797804672,60,101,337.247133985489,5.237132182557708,457.31949451168,2.2892926253848502,1
1.7394012674370094,63,97,343.2734666476632,4.919658257928675,434.8503168592524,2.218131638859108,1
1.9333662620665064,52,98,332.6321680889004,6.1671430402827845,483.3415655166266,2.4836470074797563,1
1.7062452003294195,59,95,310.74631006380866,4.667314488315758,426.5613000823549,2.160923458046123,1
1.6981607292687166,55,101,303.1329192711319,4.642839348567499,424.5401823171792,2.155013932490053,1
1.5973447914230423,56,95,291.71624163075137,4.069943024265228,399.3361978557606,2.0175626402111937,1
1.612334364801293,55,97,271.75947351259003,4.81309253403395,403.0835912003233,2.193899892690113,1
1.7776084442268494,51,111,305.4181466686092,5.958568446079588,444.40211105671233,2.4410249248492577,1
1.5090956682371195,63,104,288.06475818938515,4.412598147736239,377.2739170592799,2.101380321993457,1
1.2530236463542122,77,105,275.7862839036512,2.6174370772608864,313.25591158855303,1.6178518353420168,1
1.1011380407383404,69,106,240.5369029257158,2.081928999239248,275.2845101845851,1.4428991610355042,1
1.01243792509321,58,103,204.15687573224383,1.7794057764038695,253.1094812733025,1.334000801694588,1
0.87939427464188,68,106,183.42156371358504,1.593298341306004,219.84856866047,1.2624188209119025,1
0.8223412524303222,60,103,161.20236170115749,1.1329168399286595,205.58531310758056,1.0643859715744852,0
0.6549621095023642,69,115,139.49253828316304,0.7674176791130934,163.74052737559106,0.8762028868641905,0
0.7018290471888049,74,121,138.8940294697733,0.9976048447726792,175.45726179720123,0.998811019179048,0
0.7382666374910145,69,120,141.63824762421717,1.3935791492910683,184.56665937275363,1.1805024155828592,0
0.7212032654751952,72,122,160.69322852415308,1.133892234184284,180.3008163687988,1.0648456949012648,0
0.6521975249856935,68,111,146.2965614750551,0.8539191643108741,163.04938124642337,0.9242343027368144,0
0.709323212245063,79,110,158.18481228421933,0.9384850163197191,177.33080306126575,0.9687543665712188,0
0.6969518468577725,73,118,147.2713007756613,0.894661822878522,174.23796171444312,0.9459088437846184,0
0.5855694445975422,72,123,132.83421480525993,0.6097281632991751,146.39236114938555,0.7810689196807667,0
0.7082851241008371,75,114,149.93887081313338,0.8830620704572835,177.0712810252093,0.9398937724314907,0
0.6091326813394342,83,115,142.43696276516965,0.8050774439294183,152.28317033485854,0.8972797916698083,0
0.5881015650186145,82,123,145.55237655104276,0.7324841444647568,147.02539125465364,0.8558531682698501,0
0.7259647162651836,63,111,156.55852770154502,0.9088373966638528,181.4911790662959,0.9533402392483512,0
0.6231706439228244,71,126,139.6011066643125,0.7549621942592211,155.7926609807061,0.8688876938846916,0
0.6993846250015692,76,118,153.17759345982313,0.8413685342449518,174.84615625039228,0.9172629005934382,0
0.7650697268454496,76,114,164.49005188090297,1.177313509310132,191.2674317113624,1.0850643672545992,0
0.6575538622686818,73,115,136.63024855200007,0.8574748113321918,164.38846556717047,0.9261333144065026,0
1.0106071731038075,52,100,177.01586646042975,1.890757685681416,252.6517932759519,1.3751592019636036,0
1.9761628119513983,51,85,330.16408642324694,6.495913543487756,494.0407029878496,2.548928914627861,1
2.573880598942876,57,91,460.1753206584068,11.082864802898056,643.470149735719,3.3297490049500875,1
2.0566895917595587,69,99,423.6260548778602,7.063488808204383,514.1723979398897,2.657774833769284,1
2.269891700274772,67,103,466.1709120581715,8.442834652324214,567.4729250686929,2.9057755506889835,1
2.265070605440678,56,101,387.8397186346685,8.117132319716214,566.2676513601696,2.849058560741453,1
2.076344103743368,50,88,329.9915567008605,6.756586088082488,519.0860259358419,2.599395383976114,1
1.612600427960474,58,98,304.3230715322941,4.119322850627899,403.1501069901185,2.02961492764074,1
1.496398708036888,61,97,293.25554378332583,3.6814767637349655,374.099677009222,1.9187279547021237,1
1.5131034689741778,69,102,308.7800357866552,3.806911620116015,378.2758672435445,1.9517138776910887,1
1.4832057108618997,62,99,285.8173839085042,3.5788598252267776,370.8014277154749,1.8919468710149887,1
1.5393990557006278,51,98,271.855054899985,3.595986954727455,384.84976392515694,1.896453580803148,1
1.4215987422974827,62,102,272.2914378195171,3.4228662618628056,355.39968557437066,1.85024426642978,1
1.4027666122683151,60,103,276.39168399158865,3.5225202939617355,350.69165306707885,1.8768532605227024,1
1.336811884692401,64,101,249.5825554111524,2.9468906327817384,334.20297117310025,1.7166752329088026,1
1.5705604418431764,57,94,269.9785313287666,3.990703861949797,392.6401104607941,1.997674698131776,1
1.4604023545866145,53,97,254.9948707772459,3.4449181961912267,365.1005886466536,1.856674207151053,1
1.2950116266203544,65,108,250.58563144712613,2.687278834166212,323.7529066550886,1.6393446003969934,1
1.5362352777678816,59,88,269.40199904419285,3.626020847887611,384.0588194419704,1.9046813980847703,1
1.1708080238527228,73,113,245.0785169156485,2.0650961528457894,292.7020059631807,1.4370999458298537,1
1.191138517609328,64,115,223.1377598645905,2.139341843918785,297.78462940233203,1.4626565498184376,1
1.2715303250752883,67,97,236.9980709990133,2.612279210357741,317.8825812688221,1.6163538495285654,1
1.2216258649792826,58,106,236.06023604481,2.2979233515849007,305.40646624482065,1.5159161481497316,1
1.088333531089685,68,112,228.99976770529088,1.9523990444272088,272.08338277242115,1.3973779439086769,1
1.4252887917854542,52,101,231.48973442222848,3.241420309084594,356.3221979463636,1.80039455259686,1
1.285067413265576,51,104,210.4423691871048,2.6682398939772423,321.266853316394,1.6334804038552804,1
1.2247291593436402,52,101,187.58705217799832,3.1388963281062185,306.18228983591007,1.7718901151496975,1
0.8660620235686977,61,99,170.7170083428004,1.3301561077610378,216.5155058921744,1.1534049732455514,0
0.7882581394161745,56,109,167.95009870896024,1.2039539575038094,197.0645348540436,1.097248715424478,0
0.8768066016726557,65,131,183.16011502035397,1.6101416012798944,219.20165041816392,1.269291327621214,0
0.708452618065428,66,113,139.34218978789983,0.8184474617091473,177.113154516357,0.9048083141858262,0
0.6844937523593337,74,117,144.15943373463517,0.805385869925741,171.12343808983343,0.8974355590673463,0
0.717499143105799,66,107,150.1102960982169,1.016008748383684,179.37478577644976,1.007990211995436,0
0.7275589770914143,57,114,137.52777144279275,0.916173531481587,181.8897442728536,0.9573340832962862,0
0.6283389349303995,52,110,118.4587199104998,0.6250003328268413,157.0847337325999,0.7906276691703853,0
0.5505711950661062,51,121,110.12855361200928,0.6069763571382659,137.64279876652654,0.7790972656903874,0
0.5523063647253628,75,127,116.7418128016494,0.6184719255392469,138.0765911813407,0.786436095045695,0
0.4245526553999205,99,132,102.6563046347092,0.317252446721793,106.13816384998012,0.5632520892393336,0
0.4114474838722153,80,128,94.68298021255512,0.2887923006415833,102.86187096805382,0.5377037107570602,0
0.4045211084286453,89,130,96.59082024604916,0.2817401738976283,101.13027710716132,0.5308003555026453,0
0.4149066207071193,86,140,97.34900570126187,0.314814855538439,103.72665517677984,0.5611186080906659,0
0.464723695739397,73,126,100.16323513428662,0.4287980187228231,116.18092393484926,0.6550248906232387,0
0.4598939300321897,77,131,100.45496282295768,0.4206893162544428,114.97348250804744,0.6486407426500194,0
0.3808307201054017,78,130,91.2609529374676,0.2742970026495523,95.20768002635045,0.5237427484482632,0
0.3543394404789218,75,139,81.6926392610419,0.224883547817054,88.58486011973045,0.474244717350358,0
0.3437402027883596,83,122,84.64146787745635,0.2038896442642614,85.93505069708989,0.4515433117825417,0
0.3727370620906509,80,121,97.56655112792004,0.2498453111904825,93.18426552266274,0.4999035027221495,0
0.3558391989847906,83,127,90.5027080508091,0.2264120890521305,88.95979974619766,0.4759797357906639,0
0.3289502731672163,80,133,85.22188800627839,0.1803409516766629,82.23756829180408,0.4246981415622602,0
0.3436629503903975,84,139,88.73075240036704,0.2112984309781862,85.91573759759939,0.459692742310029,0
0.6166131916983895,48,112,106.06637905211046,0.6161269717220855,154.15329792459735,0.7849399314888192,0
0.8236982962585316,65,112,159.97057498022656,1.1565731655728009,205.9245740646329,1.0755387587140317,0
1.985117340182044,61,104,367.7155543515894,7.340712632082173,496.27933504551095,2.70937928491278,1
2.593226159208132,60,91,476.9008124299592,10.019271198234732,648.3065398020331,3.1677736584918303,1
2.539745652697205,57,96,459.2203818907674,10.311034271519866,634.9364131743014,3.211301430402321,1
1.891875232696668,57,95,343.4709132156941,5.522297676704419,472.96880817416695,2.351149800794802,1
1.7760910895958444,63,103,338.9966446592057,5.337052686116166,444.0227723989611,2.3103338338201955,1
1.6834955262816769,63,101,332.9785856544809,4.627290646674588,420.8738815704192,2.151169095225665,1
1.7122711675076776,53,93,309.93262730479466,4.550582082030247,428.0677918769194,2.1334939199292258,1
1.71129302554301,58,103,330.03506252733547,4.56165128580872,427.8232563857525,2.136458079507928,1
1.7746895427354956,60,95,312.1490150876267,4.97598256546075,443.6723856838739,2.230719391459518,1
1.3569483395752415,55,95,265.1158027857405,3.0341773325611734,339.23708489381045,1.7419360285305934,1
1.4281728694206703,54,101,258.5708794316831,3.3220256805127555,357.0432173551676,1.822723487911576,1
1.696923074831203,55,96,296.7771374133501,4.546378015603533,424.23076870780073,2.132232491009091,1
1.5584776897765065,58,96,274.8866784116888,3.677420559230872,389.6194224441266,1.917671792576896,1
1.39309019034784,58,96,259.1776566101768,3.092663204512644,348.27254758696,1.758638228826993,1
1.6136169244301537,60,103,299.6036087324199,4.996520151271496,403.4042311075384,2.2353301402114005,1
1.595680627038471,68,102,318.25803107503856,4.439500712151067,398.9201567596177,2.107099513053082,1
1.3813494830309998,68,103,262.6350515298349,3.140454315366521,345.33737075775,1.7721334537691855,1
1.475862194154591,68,104,285.2306304183121,3.723102635105992,368.9655485386478,1.9295343150300297,1
1.297495684807484,67,102,258.4199548081881,2.6100383986234377,324.373921201871,1.6155855676019133,1
1.2688310478292162,65,96,256.8678565452988,2.450171866235376,317.20776195730406,1.5653431037409409,1
1.5086878543912845,61,85,269.2717404930943,4.133290607203878,377.17196359782105,2.0331053163427457,1
1.6233397791963309,62,89,298.8284275493505,4.355845353613279,405.83494479908273,2.087071406397637,1
1.7811876987190571,54,101,320.520832236111,5.505168308785274,445.2969246797643,2.347162363417358,1
1.551417598723271,48,86,234.78163871081236,4.836557721636086,387.8543996808178,2.200352617578098,1
1.06211236494678,41,83,112.4277048258108,2.996651633079774,265.528091236695,1.7312416097293477,0
0.5612404413097845,66,117,106.2844128269065,0.5147068819265064,140.31011032744613,0.7174920704357453,0
0.7584714214194307,61,113,133.09704831606558,0.9054160559677088,189.61785535485768,0.9515336837088634,0
0.8503159304193233,65,106,176.00985211307315,1.1818036789070576,212.57898260483083,1.087151429908204,0
0.8015213869913962,72,110,165.1678053147219,1.1013481414581716,200.38034674784905,1.049452147084391,0
0.8001730847043652,69,106,165.7362315319611,1.081851460399217,200.0432711760913,1.0401428966496251,0
0.691160262506814,70,115,146.2422001200705,0.928290616307814,172.7900656267035,0.9634921147614072,0
0.578899681063594,72,124,118.3339014326515,0.6004228042039429,144.7249202658985,0.7749739461138174,0
0.5383974110053343,75,123,119.03873140583292,0.4705769171300564,134.59935275133358,0.6859965144287636,0
0.5474589082665248,64,108,109.67696672237496,0.4941068220324422,136.8647270666312,0.702943611832009,0
0.5310360365890098,72,115,114.4175205314078,0.5273815018939807,132.75900914725244,0.7262931395656056,0
0.5162593790527287,74,116,113.84310817519386,0.5343679761963153,129.06484476318218,0.7310106204617057,0
0.4839128555180039,68,121,99.55121813904718,0.4147043996269367,120.97821387950096,0.6440266365157582,0
0.486159052873756,72,120,106.37202634902528,0.4229484265075035,121.539763218439,0.6503586574342355,0
0.5666892865740276,62,115,105.6168882247792,0.6524933523561346,141.6723216435069,0.807784791967576,0
0.5394049913392526,77,116,110.52193576804264,0.6110652396085134,134.85124783481314,0.7817292766146404,0
0.481627769570541,72,129,102.89591701898456,0.4228158280605326,120.40694239263526,0.6502429762673437,0
0.4725266198969816,72,127,98.71703449665762,0.3759256874232867,118.1316549742454,0.6131290562632258,0
0.4941573431643906,66,111,98.2916761642561,0.4391042752231961,123.53933579109766,0.6626891071491947,0
0.5185061111584396,67,117,107.79411139040664,0.4537293466244214,129.6265277896099,0.6737783888784621,0
0.4702277652065222,71,117,95.5828358867554,0.4115654405393901,117.55694130163056,0.6416932021257836,0
0.461122925673964,71,111,97.67142868725892,0.4437848323007847,115.280731418491,0.6663614584008429,0
0.4422024002532415,66,126,95.2548021900956,0.3749363837470659,110.55060006331038,0.6123692942889251,0
0.375516385717474,67,130,82.25119781247287,0.2376454876241546,93.8790964293685,0.4874898564250908,0
0.3489281314086027,73,118,85.78955613112734,0.211638956455202,87.23203285215068,0.4600580455285168,0
0.3122089876837905,76,131,73.63436087148744,0.1864763454449694,78.05224692094762,0.4318481258802936,0
0.2818243368686579,87,140,71.96947591418473,0.1292962855926136,70.45608421716449,0.35960258862353,0
0.9843084985775128,51,111,140.31546324203595,2.371721637644292,246.07712464437816,1.5403047147297837,0
2.0313137504153143,48,79,326.56884553995474,6.988560736685986,507.82843760382855,2.6436663618242777,1
1.9834691882651887,57,87,379.5311684178109,6.355223041600064,495.8672970662973,2.521554452941773,1
2.063235121358272,58,94,390.5556056370472,6.621609765178782,515.8087803395679,2.5732563945350004,1
2.228564632880758,49,95,392.6200880684684,7.830733538258735,557.1411582201895,2.799228615487365,1
2.0663588627374274,58,100,371.4813418311253,7.052769078033809,516.5897156843569,2.655873889019158,1
1.9857230472221,62,98,376.2188033036165,5.908343856982562,496.430761805525,2.4312463275258174,1
2.0458541416590244,58,102,399.4161448459032,6.193303178337871,511.4635354147561,2.4886575060015867,1
1.6441679634376405,66,116,354.8581846733762,4.230598277639068,411.0419908594101,2.056950201950231,1
1.9213146932988403,55,106,371.1938011610442,6.6061128530025,480.32867332471005,2.5702429524663306,1
1.7039067907314054,74,93,355.6298430629145,4.5004298324541,425.97669768285135,2.121784307585674,1
1.538788779413898,76,117,333.54961406821513,3.896892760547868,384.6971948534745,1.9741262642070727,1
1.719314665692686,61,102,310.68166164493687,4.9953848938941485,429.8286664231715,2.235053695736064,1
1.817444196362624,62,91,332.67018203901387,4.93452182747832,454.3610490906559,2.221467629139376,1
1.89636971029007,61,98,360.8980818621658,5.1622513705487725,474.0924275725175,2.272059735758404,1
1.940933475475144,71,95,365.7643568679499,5.69293207652334,485.233368868786,2.3861290125866903,1
1.782939406045679,71,110,364.6000081942981,4.785226329408135,445.73485151141966,2.187627517524257,1
1.511207905279112,77,102,323.483660164536,4.019097813145286,377.801976319778,2.004804859960668,1
1.6766728386556629,67,88,333.14821779252674,4.59041113384669,419.1682096639157,2.142550793863394,1
1.461385982208401,65,91,281.6628511006468,3.449781430699475,365.3464955521002,1.8573654735720224,1
1.4184252984949866,56,93,281.03435532768265,3.449941310921506,354.6063246237466,1.8576838712294,1
1.238368519478641,53,96,233.7469902760071,3.0593482912264203,309.5921298696602,1.749111008219995,1
0.692354048251344,57,111,107.51926109819242,0.8400515856659557,173.08851206283595,0.916572409700562,0
0.9536596821432856,60,102,167.1635517373553,1.63350754656862,238.4149205358214,1.2781188564214452,0
1.0196969365809738,61,106,196.01043216745336,1.70591434079495,254.92423414524347,1.3061425937597448,0
0.9692246651860116,66,107,185.70388952941045,1.5841816006174767,242.3061662965029,1.2587155609038634,0
0.7802596794554911,59,105,146.75229547310485,1.0447853740676365,195.0649198638728,1.022425626417227,0
0.6026426426239988,69,114,121.58761925759347,0.5908887179803348,150.6606606559997,0.7687268033176281,0
0.7066087464165064,67,121,139.56558407265848,0.9210280886984972,176.6521866041266,0.9599051851540789,0
0.7049232270927603,61,132,140.8740559804043,1.122748059139336,176.2308067731901,1.0597066540179785,0
0.4926350290258341,69,134,115.88724480072317,0.4140982701840776,123.15875725645854,0.6438831490840152,0
0.5574812489323226,76,122,124.49213870617312,0.5123023468128903,139.37031223308065,0.7157799750886972,0
0.646485406179294,67,111,127.66383427583864,0.7440499997013584,161.62135154482348,0.8625835019963153,0
0.4734425850542321,83,122,104.02968114368242,0.4365244324591164,118.36064626355804,0.6607336167978953,0
0.5602423978013347,74,113,119.34016621705078,0.6547420017538848,140.06059945033363,0.8091876059564809,0
0.5754706727395182,69,109,116.30687667660126,0.5839742954974986,143.86766818487956,0.7645001522169399,0
0.4881537098230969,78,135,108.35446396001468,0.403418739235945,122.03842745577424,0.6351953761369181,0
0.4806793094444151,89,115,111.27220087395634,0.3869857826681224,120.1698273611038,0.6220861392462161,0
0.5142151729938299,71,114,112.07958474907728,0.5299558111047828,128.55379324845748,0.72798778662032,0
0.4962975959809679,71,114,108.45201391735506,0.5483685490510379,124.07439899524198,0.7405368539020362,0
0.5501662396801864,63,121,110.5268594763773,0.6266886742642392,137.5415599200466,0.7917286991106975,0
0.4670405498785582,76,113,99.04944290048996,0.4075114985240956,116.76013746963956,0.6384235466739341,0
0.4620815554835998,65,130,90.6159140133656,0.3806270761144602,115.52038887089996,0.6169775682358509,0
0.3870371060671502,80,137,92.42983292441482,0.2639099225172874,96.75927651678757,0.5137376212835101,0
0.4089862523948694,74,130,93.74877484988453,0.2872025316227007,102.24656309871736,0.5359614854540438,0
0.4570592588872448,70,125,98.15650198016957,0.3903721416348327,114.2648147218112,0.6248613344491397,0
0.3680910383176717,87,130,94.96830964308695,0.2296091035379536,92.02275957941794,0.4792007002886062,0
0.407652590972655,77,125,99.96209500169807,0.2975255095215705,101.91314774316376,0.5455538513672775,0
0.3946999374865754,76,121,91.52974832001571,0.2968149589119476,98.67498437164386,0.5448441072731899,0
0.3275582608242134,85,136,80.83395293409096,0.189780965262643,81.88956520605336,0.4356483873353209,0
0.4977568405823603,70,118,101.87781191046474,0.4155950891215086,124.4392101455901,0.6447841177493847,0
1.030365190570417,58,107,177.28417206161643,1.9497438623053085,257.5912976426042,1.3963587188279,0
1.886887098074706,55,102,331.08923904964604,6.106197845310044,471.7217745186765,2.471072353528354,1
2.349010867894686,53,95,421.437650080112,8.506400375189775,587.2527169736716,2.9165734708414037,1
1.9623936934463373,62,92,374.3111964245264,6.934262480058373,490.5984233615843,2.6341503556542007,1
1.8657418188884525,53,103,340.64587284919435,5.6167927946838665,466.435454722113,2.3699888887945124,1
1.9728109382929528,60,86,380.15058390336793,6.561532424723704,493.2027345732382,2.561880656461593,1
1.9450782891369556,61,96,350.2832888460101,6.402443227412685,486.2695722842389,2.5310681832265005,1
2.2195307097867865,64,95,419.3544414733783,7.808170941024884,554.8826774466966,2.794322279890132,1
1.9017185775340533,65,96,360.6366073199524,6.072137780320213,475.4296443835134,2.4653251131331344,1
2.102915692022983,64,91,387.000550097399,7.347962707480864,525.7289230057457,2.710722257741685,1
2.220483181439068,62,99,396.35082673818897,7.391802747473222,555.120795359767,2.718797593959237,1
1.775813378410803,62,106,351.7070401904674,5.130463355978479,443.9533446027007,2.265071593786017,1
1.5674143473816375,67,96,321.84245254238056,4.143627452130062,391.8535868454094,2.035601466740899,1
1.7673317832534212,68,102,364.1181277794794,5.000823623993772,441.8329458133553,2.236449303614615,1
1.7140846331949546,71,103,372.1220964769627,4.869263535582753,428.5211582987386,2.206646867923734,1
1.7192979826060837,65,107,363.5782794339542,4.913945007585941,429.8244956515209,2.21674201884354,1
1.6124194860066376,67,104,332.03421723542374,4.148869620527782,403.1048715016594,2.036929648548439,1
1.8079891491739284,63,105,353.5811191448322,5.447971099536654,451.9972872934821,2.3342195791156786,1
1.99684483242801,66,99,379.3613108497105,6.588655322242345,499.21120810700256,2.5668485510441523,1
2.108812618465079,62,106,381.84538675418753,6.933259980550733,527.2031546162698,2.6334629440384867,1
1.763550724074284,61,97,361.9071490486045,4.960103532458965,440.887681018571,2.2271289923849107,1
1.600696724495596,61,94,311.89246451112376,4.214706888256036,400.17418112389896,2.0530618164694987,1
1.1922448197983293,59,107,204.80231754489068,2.792578846951685,298.0612049495823,1.6711557409787572,1
0.8826468975034288,56,116,151.86534848150438,1.4008541056143258,220.6617243758572,1.1836821145492118,1
1.453886387767359,57,93,255.7856424038557,3.3049674159026683,363.4715969418397,1.818137112259224,1
1.0312544601806364,73,102,209.7149603460928,1.782699627060536,257.8136150451591,1.3351783149988607,1
0.8544044655917455,64,102,162.64930799446586,1.2740222581586704,213.6011163979364,1.129058745564882,0
0.6156242518261179,71,119,135.31427596709824,0.6675546795266951,153.90606295652947,0.8170415473602692,0
0.7178117704962106,77,120,145.38589396637977,1.1906082746673212,179.45294262405264,1.0911598164604217,0
0.6672580741772285,58,111,125.23953561348527,1.0276623593363938,166.81451854430713,1.0137467357565997,0
0.5809178435066458,62,117,128.6427922629207,0.5885970219826654,145.22946087666145,0.7672012421769678,0
0.5600832752115907,63,119,116.53681771339654,0.5773525346456595,140.02081880289768,0.7598374634844483,0
0.4889192702421429,66,121,106.09520329369636,0.5121660135359165,122.22981756053574,0.7157005491698641,0
0.5743382078893863,69,122,116.13069751744872,0.6146858604770413,143.58455197234656,0.7840264732517213,0
0.5141722151849333,88,126,116.6086808205501,0.5385729946507009,128.54305379623332,0.7339432921944474,0
0.4584498645944893,85,126,115.67612936348117,0.3926042051099255,114.61246614862232,0.626588288501211,0
0.4657833802207604,76,125,106.55610878846008,0.3724846452217631,116.4458450551901,0.610321770567151,0
0.4903691817969258,74,119,111.21696842268857,0.4316185433078696,122.59229544923144,0.6570559376588642,0
0.5114456085414193,64,120,104.30213369568492,0.4896707942600194,127.86140213535484,0.6997648817664703,0
0.3630923031256849,84,136,91.90501102248304,0.2276579180842587,90.77307578142124,0.4771410583468194,0
0.390995991895627,90,128,103.549371519587,0.2716922368523146,97.74899797390675,0.5212530032441008,0
0.4037114182762108,78,130,96.50366901327412,0.2715290504688102,100.9278545690527,0.5210960566155454,0
0.3893178142990022,77,123,88.17179800974898,0.2636424775211034,97.32945357475054,0.513511006099874,0
0.4390463170689197,77,120,97.83700673761368,0.3205089942936937,109.76157926722992,0.5661586545673732,0
0.4480092617612716,80,120,111.31404054672632,0.3628930672713107,112.00231544031791,0.6024422281235756,0
0.4593065495279702,73,122,105.27176809815752,0.3628786057477096,114.82663738199255,0.6023976729053265,0
0.5697046334379778,53,115,108.10569807933314,0.5625117435261788,142.42615835949445,0.7500078631870157,0
0.4583248276717896,67,116,98.90106202442956,0.3980689482665083,114.5812069179474,0.6309323122091247,0
0.5223376189289894,57,117,111.93601054372424,0.4501929020113679,130.58440473224735,0.6709682433207169,0
1.1997578995080074,53,105,191.28370308517924,2.972834448457602,299.9394748770018,1.7243570521839209,0
2.022310185173345,56,101,356.8577925372212,6.8025219214138986,505.5775462933362,2.608166704697283,1
3.218831587163632,58,92,632.03518802146,19.245821032631284,804.7078967909081,4.387122042271828,1
3.8077323282726456,62,91,709.79389672917,24.00171803446614,951.9330820681614,4.899397788155589,1
2.826213546964628,69,100,588.156956960822,13.869225334684746,706.5533867411569,3.724241289880465,1
2.993677323435497,57,95,583.4674695084173,13.783074006960572,748.4193308588742,3.7130053859483696,1
2.6679026913619404,59,90,504.3122935330757,11.557278252203584,666.9756728404851,3.399724916731384,1
1.9734725088099083,51,107,378.0179625445781,6.0137562706598295,493.368127202477,2.452349161281993,1
2.3138623172700243,50,90,407.68577636019097,8.42693358675384,578.4655793175061,2.9031853286597986,1
1.9734105786607536,54,94,345.4357399387443,5.974198185289223,493.3526446651884,2.444232314073227,1
1.5796966157760226,65,100,299.5719402538181,3.9751138501230017,394.9241539440056,1.993769071733877,1
1.4920459540385336,60,102,294.9128211320728,3.5862085641390005,373.0114885096334,1.893734779058464,1
1.8476681860322373,61,90,350.79911575132326,5.311168283344001,461.91704650805934,2.304667284672414,1
2.181303601951314,53,92,397.8625103529444,7.81706156209694,545.3259004878284,2.7959090018737323,1
2.0313834691645245,57,101,414.74544253574607,6.659112697244684,507.8458672911311,2.581597111185075,1
2.767025466084737,57,101,482.6703803615727,14.05769993315867,691.7563665211842,3.7493787086699824,1
2.364292284139655,61,86,399.8388666869149,9.95444857134662,591.0730710349138,3.155150087816835,1
2.512734567946622,58,94,467.1005084141997,11.05004025879895,628.1836419866556,3.3242627443809285,1
2.6394474354068023,53,90,452.816944419004,12.551033903449104,659.8618588517006,3.542788320460472,1
2.8356925108449524,40,90,407.54667300422005,16.130283839125003,708.9231277112381,4.017254458160962,1
3.4793495803931176,33,96,495.9077319260815,31.496625516515984,869.8373950982794,5.614259851456171,1
3.0111580377474185,45,97,436.09244663277536,19.855388275311583,752.7895094368546,4.455970338514406,1
1.7883921177255142,41,90,274.8479819392902,5.774009804263988,447.09802943137856,2.402917556612976,1
1.2453903560582498,51,85,205.23021229861445,2.62957804859331,311.34758901456246,1.6216158352063343,1
1.868263562157936,52,83,305.8833894732656,6.176403539813197,467.0658905394839,2.4857429783572136,1
0.8884620494790427,60,99,172.4465807382742,1.319090247514605,222.1155123697607,1.1485183015026137,0
0.6626574929900453,60,119,136.88079115923875,0.8251245745408816,165.66437324751132,0.9083914102812084,0
0.606962647389335,63,128,137.93882300223612,0.6990114571978595,151.74066184733377,0.8360912244941291,0
0.6440687502161304,77,117,146.8871486410087,0.7323645186070684,161.0171875540326,0.8559620196730344,0
0.5076627933091229,81,128,119.29909054679403,0.5080637944751321,126.91569832728074,0.7127912401347872,0
0.4949690723294542,78,113,104.10347173291304,0.4502682668233074,123.74226808236357,0.6710217599260297,0
0.507229543461516,71,120,112.49496246066192,0.4678497268413832,126.80738586537902,0.6840046058565532,0
0.4868881846489443,67,108,106.1759395021374,0.448707932248374,121.72204616223608,0.6698643789534304,0
0.4821396756644829,80,120,109.85119932834291,0.4359962455296731,120.53491891612072,0.6603403450216151,0
0.4915871263614048,69,123,111.24708601208712,0.4607574052532582,122.8967815903512,0.678794826617867,0
0.4590832073110413,76,114,105.34503384063284,0.3894897017701589,114.77080182776032,0.6241331431582833,0
0.4624045584149912,70,111,99.38682854257183,0.3426839687600684,115.6011396037478,0.585392512575151,0
0.4659577654764211,83,121,108.45844462090906,0.3571136235614113,116.4894413691053,0.5976011076370196,0
0.5198753791178587,70,111,118.87698595945182,0.4826730472433707,129.9688447794647,0.6949244304500188,0
0.5469721185071017,67,119,117.80819928151884,0.5299274588176349,136.74302962677544,0.7280131786080861,0
0.5650117759720688,61,123,118.18922860347656,0.5827033069022275,141.2529439930172,0.7633960277918307,0
0.5284001840825548,78,111,125.26866332587728,0.48254677255697,132.1000460206387,0.6946615476378172,0
0.2388578643451298,89,137,63.95319128152016,0.0889177483936443,59.71446608628246,0.2983876756833917,0
0.2345855299677205,91,143,67.02672650826784,0.0878190410160975,58.64638249193014,0.2963549738121304,0
0.2267323463464253,96,142,59.07289937196238,0.0857503822925647,56.683086586606336,0.2929521657054232,0
0.2042934180069021,94,138,56.85529369290512,0.0732164266345325,51.07335450172553,0.2705867377181711,0
0.2063241689533635,93,149,61.8780184943044,0.0703850237368651,51.581042238340885,0.2653078086992659,0
0.3105888395045379,71,125,69.66701403898969,0.1595241026853378,77.64720987613448,0.3994070575661954,0
0.5437952943438938,64,119,110.8200059674778,0.5280233833875727,135.94882358597346,0.7266523272396522,0
0.5950367745314092,67,104,125.53640498103547,0.6513944719396109,148.75919363285232,0.8070962484424662,0
0.8613885716361019,71,109,174.04938856913353,1.369284284973579,215.34714290902548,1.1703806462854531,2
0.7706156073435902,64,110,145.31015020504418,1.0753109115261597,192.6539018358976,1.0374050963186463,2
1.2367753521313587,65,108,234.6929763566102,2.885605721720321,309.19383803283966,1.6987216416357132,2
1.924083519920092,68,98,381.0082603422838,5.828817818318494,481.0208799800229,2.4149510954683064,2
2.4057891598938297,69,103,485.44153909902,9.087150601945654,601.4472899734574,3.014848856103046,2
2.187788469816016,74,100,459.4147805131085,7.4521912488024515,546.947117454004,2.730153213482517,2
1.640828735150519,86,108,407.9376455711751,4.555694966971547,410.2071837876298,2.134494759743834,2
1.4027521930193,81,102,288.1918941447932,3.1479279460238447,350.68804825482505,1.774268631449624,2
1.4805209488333928,69,106,333.9379486717787,3.4793031269257,370.1302372083482,1.86533004811232,2
1.510550441005911,70,89,337.5348273355268,3.731021205660881,377.6376102514777,1.9315961860788369,2
1.532679600013194,66,97,312.8864748398381,3.679544607953634,383.1699000032985,1.9185309317266377,2
1.5237886663661266,67,94,331.22382920922854,3.777499895903755,380.9471665915317,1.9435839419965109,2
1.6061520633904725,70,98,335.6378043658028,4.085190267248179,401.5380158476181,2.021185465190408,2
1.4192866955323022,72,103,305.8937112592968,3.4351263461086465,354.8216738830756,1.853536730188804,2
1.2138444789300442,65,93,259.39238712978715,2.597181734557755,303.46111973251107,1.611578773443269,2
1.108437292754248,66,106,231.52345056380275,2.090796187015991,277.10932318856203,1.4462878373180874,2
1.086435246514461,68,114,230.0139460639096,1.883841121105538,271.6088116286153,1.3725670023294338,2
0.7543169791264392,82,119,178.9975888029557,0.9651425788701348,188.57924478160984,0.9824192896319952,2
0.7122154405041862,76,122,172.860861665485,0.8520351169715414,178.05386012604654,0.9232446349435506,2
1.4533349740660928,56,104,203.3402444943864,6.735670332978812,363.3337435165232,2.597115756554625,2
1.969668186168736,49,99,272.70949315325896,8.943725932164321,492.4170465421839,2.991040406099076,2
1.288977419744143,68,114,261.73211749466947,3.001045976083806,322.24435493603573,1.7331464854195222,2
1.7146169294965767,68,99,326.97839090804115,4.810466893740277,428.65423237414416,2.1932965394757127,2
1.3037750635266798,62,98,248.8196902260613,2.8265934791253207,325.94376588166995,1.6812523130604382,2
2.057577337276772,43,94,195.2564816096913,13.670342307510722,514.394334319193,3.697589787859482,2
0.728659060702264,59,106,124.0742126570465,0.8601537463203888,182.164765175566,0.9275002717193238,2
0.5408308315520792,65,116,110.18536116656182,0.4817114749626519,135.2077078880198,0.6941624105742662,0
0.4504817882088831,76,124,104.29578091265029,0.3822161373160087,112.62044705222078,0.6184613037781072,0
0.4052274946188154,80,129,90.30014994264124,0.3256295855476622,101.30687365470386,0.5706690908280311,0
0.3211575982669387,85,120,80.44620902664315,0.1845211135803913,80.28939956673467,0.429567877605844,0
0.3545114225727045,82,123,87.75907044716989,0.2320686024008597,88.62785564317615,0.481741286789827,0
0.3261671773257882,84,136,83.29427069552253,0.2009824802836311,81.54179433144706,0.448322845046338,0
0.3084103137343487,90,130,79.00252875225522,0.1591689164179354,77.10257843358717,0.3990177127907817,0
0.3633898212690334,69,123,81.18620498511942,0.2213363086990992,90.84745531725837,0.4704799107006028,0
0.4275403738199888,58,125,89.71548647496225,0.3204670007987137,106.8850934549972,0.5661304616429447,0
0.4481725745030105,70,118,101.99981690445456,0.3547985410421723,112.04314362575263,0.5956825989332818,0
0.4030175872046868,80,113,88.31698524162815,0.2969174452495517,100.75439680117172,0.5449047465430922,0
0.3531880039602053,94,133,85.59456011632366,0.2197424412363094,88.29700099005133,0.4687698287050495,0
0.3876555353657708,84,126,89.58537941384328,0.2475487821134928,96.91388384144273,0.4976090173312111,0
0.3631747528967278,70,130,77.53736511121626,0.2460317537400767,90.79368822418196,0.4960514720849137,0
0.3077913407885012,73,130,74.00131933565052,0.1586011508699201,76.94783519712531,0.3982477185787246,0
0.3647515189897842,71,130,81.16930365449849,0.2193341646177973,91.18787974744606,0.4683317793525187,0
0.3806114883455398,70,127,86.21063042413532,0.2555318629312302,95.15287208638496,0.5055611659233031,0
0.5361696994899627,68,107,103.6825798119772,0.4934108083045683,134.04242487249067,0.7024449853988701,0
0.6913876490131486,70,96,133.39234654165006,0.829592600116408,172.84691225328717,0.9108834141250376,0
0.6352254424829775,73,115,134.72921305267664,0.8281823062414285,158.8063606207444,0.9101703693483322,0
0.4825510532658246,70,123,108.05822068312268,0.4042255802391692,120.63776331645614,0.6358432125983993,0
0.4521481077103211,77,124,100.39443083380232,0.3894390800030632,113.03702692758029,0.6240866840002752,0
0.490115864310426,80,136,118.42382934534528,0.4795894439180417,122.5289660776065,0.6925896191862052,0
0.4445414492456236,77,123,98.93625077932892,0.3758385272469091,111.1353623114059,0.6130570820928274,0
0.3868516802040291,68,128,86.09196066116618,0.232629318154201,96.71292005100727,0.4827377036089839,0
0.3840191222143087,80,126,89.12145634752805,0.2595476148403804,96.00478055357716,0.509493087504049,0
0.3329746132197029,86,131,82.70300744679754,0.1885764581879185,83.24365330492573,0.4342542611994518,0
0.3543096017932686,86,127,90.67342617856282,0.2240100742894688,88.57740044831716,0.4732980870850261,0
0.3420048358082543,88,122,84.9116702756161,0.229807225434636,85.50120895206358,0.4795458867897195,0
0.3166365140674536,74,132,73.13978867964683,0.1948935731230602,79.1591285168634,0.4414774019827106,0
0.3727792102756568,76,127,87.65074614297353,0.2814515871387654,93.1948025689142,0.5305310288853183,0
0.3883698040334911,80,127,94.89844816330115,0.263976640028297,97.0924510083728,0.5138272840070316,0
0.4807893880596262,64,117,97.13016773501867,0.4204444844052467,120.19734701490654,0.6484435276329776,0
0.5422839822908618,60,119,110.17862461800703,0.521670486813591,135.57099557271545,0.722429668308844,0
0.8125327072792917,61,98,154.6755704465761,1.2374506919885402,203.1331768198229,1.112430092554087,2
1.4356846085601895,67,99,294.43372262587644,3.244286696756507,358.9211521400474,1.8012894859273068,2
1.924496086825292,64,109,364.69313159944846,6.364325753291588,481.124021706323,2.523365983908281,2
2.188215540498033,65,99,420.1092461033298,8.577534132635064,547.0538851245083,2.9303234950147954,2
1.6714450918260635,71,110,361.2090946016804,4.375852517907189,417.8612729565159,2.092128406151591,2
1.491999626839533,74,112,336.653886221365,3.904842468473016,372.9999067098833,1.9760940222906496,2
1.6153043091066563,68,110,366.49046479386686,4.751419656731676,403.8260772766641,2.1798523511125265,2
1.5831620094565175,71,108,341.4821750137818,4.228137749611894,395.7905023641295,2.056244697364291,2
1.323946110762526,81,120,304.0189332941925,2.932173138833164,330.9865276906315,1.7124534092349082,2
1.3596711345702714,77,115,329.9466400787262,3.2627085457548866,339.9177836425679,1.8063246765619143,2
1.3806494110121277,76,112,308.4432451727756,3.6095505282980898,345.1623527530319,1.899973281385814,2
1.3980722679588784,61,88,268.2186215723269,3.119557689937752,349.5180669897196,1.766229765892807,2
1.1162576137215146,64,107,240.79755265791167,2.141844740530604,279.06440343037866,1.4637352259248309,2
1.2494184283777932,68,114,276.76331838579387,2.7520370345235667,312.3546070944483,1.6591585661284785,2
1.3102141155790914,75,115,285.31546029364216,2.849772969136537,327.55352889477285,1.6885742389984426,2
1.2800583360179554,71,108,274.30784633180855,2.741728837126846,320.0145840044888,1.655828223595002,2
1.1904406444923807,73,104,275.2911400533566,2.5707282431918874,297.6101611230952,1.6033894764599703,2
1.1784612610009766,74,105,260.1249248863603,2.2919716725773887,294.6153152502441,1.5139271992512082,2
1.1574328920028072,68,111,276.5747958996299,2.254717885556297,289.3582230007018,1.502047999135503,2
1.1313689560489233,66,109,260.5510993484656,2.291189239028029,282.84223901223083,1.5137302411524012,2
1.144004003991742,81,112,272.1163292981214,2.2164642528999567,286.00100099793553,1.4888476770068704,2
1.3326637716385654,75,120,281.3481416561484,2.853339763109042,333.16594290964133,1.6892837271398216,2
1.328720444339318,81,106,307.8455834846343,3.116814825608744,332.1801110848295,1.7654538662245298,2
0.9480565743309588,71,115,215.4557033297925,1.839729743438773,237.01414358273968,1.3563765439895263,2
1.937310628265694,39,96,196.66304237935609,11.358036030552825,484.3276570664235,3.37016963444471,2
0.9307292131280206,71,98,174.9550703285115,1.572173047905539,232.68230328200517,1.2538663134196926,2
0.72118283633393,66,102,131.0577267710433,0.9634908769748384,180.2957090834825,0.9817855476730178,2
0.5720665134443347,67,116,105.48658479543678,0.6350271961142432,143.01662836108366,0.7968922368798202,0
0.5203454852488085,64,126,105.76664568920674,0.5304910824723388,130.08637131220212,0.7283550629819926,0
0.5398891337157977,59,127,103.13788205658813,0.5153757343503098,134.97228342894942,0.7181373245992217,0
0.4533389921506864,68,140,97.19315759838112,0.3825348201945642,113.3347480376716,0.6185322199093336,0
0.4162567460134921,62,116,85.99355343172569,0.3321014195439239,104.06418650337304,0.57630276545305,0
0.4966037175238226,69,111,102.07333084684912,0.4026725033066408,124.15092938095565,0.6347866859433539,0
0.3731774624294565,85,135,90.25836881960994,0.2423124072395127,93.29436560736411,0.492252869170686,0
0.439102561160026,74,123,102.86873215178665,0.3579082730796553,109.7756402900065,0.5982580625372705,0
0.4042375869669418,90,127,93.41639896943522,0.3412048687484411,101.05939674173544,0.5841321905734962,0
0.3673950407729561,80,127,81.25813902393725,0.2848968046411778,91.84876019323904,0.5337585707157827,0
0.3522055613856428,76,121,80.62341456714863,0.2142090939695572,88.05139034641071,0.4628313022161274,0
0.3601729269031825,78,114,81.51290811462228,0.2135883309004066,90.04323172579564,0.462167325035327,0
0.3631305753673617,75,136,81.20434529993031,0.2682617480307607,90.78264384184044,0.5180441590074567,0
0.4003629936003851,74,137,87.23971966032826,0.2855983307856124,100.09074840009627,0.5344880150647845,0
0.4130029246755784,69,112,90.7873016828372,0.3026980008139171,103.2507311688946,0.5501804948627323,0
0.4239943018454409,72,116,89.3153178489244,0.3012996608547954,105.99857546136025,0.5489870175382254,0
0.3610440046794243,87,137,87.11020927800587,0.2441500262964085,90.26100116985609,0.4941334166328229,0
0.3612904544288005,70,132,86.39986911677244,0.2877174940403703,90.32261360720014,0.5363970645981015,0
0.3520183002521253,78,125,81.32402046954923,0.2119052442932012,88.00457506303133,0.4603341742922328,0
0.4319431904198532,82,122,91.21967229316246,0.4058147920155264,107.9857976049633,0.6384883385207186,0
0.5869610171536958,81,117,120.36079386397437,0.8230209639937055,146.74025428842393,0.907276902079131,0
0.4290787196116818,60,118,95.7800921765225,0.3411899921190816,107.26967990292049,0.5841188604077348,0
0.8909751785738145,57,83,178.49420492621292,1.6893414638876494,222.7437946434536,1.299920518454465,2
1.436943328554182,68,102,300.5463238611349,3.7200498001705866,359.2358321385455,1.9287796557994052,2
1.8950243604926127,72,99,400.2915384959112,5.920632642764505,473.7560901231532,2.4334715317701057,2
1.8625951102595104,69,88,392.29521448460304,5.626087353498422,465.6487775648776,2.3719404616297157,2
1.8754626347596728,70,95,379.0150664960266,6.036627701565478,468.8656586899183,2.456983241930779,2
1.4261968869437052,79,104,325.27718288553854,3.2818360590787017,356.54922173592627,1.8116051288605923,2
1.5935840258775549,70,102,350.41845138676365,4.278943305493924,398.3960064693887,2.068567997249417,2
1.4134838068594735,67,105,306.8215191803944,3.3278252838990947,353.3709517148684,1.8242344685145724,2
1.4394057020802635,77,116,322.7029236556797,3.287935191584477,359.851425520066,1.8132976550787712,2
1.391304752565138,74,100,316.40324198808526,3.0698634787419854,347.8261881412845,1.752124761463148,2
1.197681213204716,73,110,271.43094094211256,2.3579337528004065,299.42030330117905,1.5355994349570272,2
1.1541454206967567,74,111,252.834583794916,2.3608222996763324,288.5363551741892,1.536594074043707,2
1.4372831344317705,73,98,306.9299540361196,3.727399429880874,359.32078360794264,1.9306498849863691,2
1.2038264346297127,77,115,264.8609826665243,2.365899820720765,300.9566086574282,1.538189721837111,2
1.3234181764407065,79,108,307.3418206535422,2.7705894386663954,330.8545441101766,1.6645202576927756,2
1.2945016330877983,83,111,297.8189892790181,2.768266806809374,323.62540827194965,1.663841823183656,2
1.28902955541261,87,115,314.5152349915691,2.620156553400096,322.2573888531525,1.618700270810206,2
1.4673744709466343,68,111,335.4146223936899,3.414272900544756,366.8436177366586,1.8477811166546936,2
1.575706981533685,70,110,337.0430429153532,4.009324630796617,393.9267453834212,2.002424936966478,2
1.4496233794972042,71,102,308.0928879941099,3.5572184964904485,362.40584487430107,1.8864164874361573,2
1.3177908440929318,76,113,313.867016102732,2.8585471417819845,329.44771102323296,1.6908873924196317,2
1.3476940109652458,72,113,315.366038270667,2.915250194422561,336.92350274131144,1.7076034108515623,2
1.2803076687009116,73,111,288.0866797858175,2.597973817128048,320.0769171752279,1.6121047456266535,2
1.3482302507211483,70,103,278.261584365418,2.962194489719613,337.0575626802871,1.7211032764647407,2
0.7347998071019934,72,110,170.808587008198,0.9858411221610583,183.6999517754984,0.9929027047568568,2
1.1414991840955309,58,99,161.04790183034518,3.632379928797815,285.3747960238827,1.9059533982846912,2
0.6864534887298116,59,110,123.07018016436643,0.8943787439917122,171.6133721824529,0.9478643022507816,2
0.5416849925636017,65,119,113.56996858657496,0.5162068745380158,135.42124814090042,0.7184863285620818,0
0.5524510506463068,68,112,111.710751937841,0.5109228277727512,138.1127626615767,0.7149318886675032,0
0.4711576557036653,71,128,101.01282366142648,0.3829782588719692,117.78941392591634,0.6188990467150582,0
0.3884162691205953,78,132,86.54111212432323,0.2742985845499833,97.10406728014884,0.5237402937264046,0
0.3728382913332805,81,135,96.57334179612496,0.2809186057674589,93.20957283332012,0.5300770058816833,0
0.4375548772168606,72,113,91.85021961528778,0.3533227423374295,109.38871930421516,0.5944105350749113,0
0.3901358465003442,72,132,87.53580095476467,0.2636400016315476,97.53396162508604,0.513463873892544,0
0.3334097099299353,79,128,76.71568020120148,0.1701154329751529,83.35242748248382,0.4124537400800961,0
0.3309818671905895,82,128,82.77121851035395,0.1925354749651326,82.74546679764737,0.4389159167129819,0
0.3798971593820407,74,138,88.61673593542918,0.2536561329234409,94.9742898455102,0.5036543762319359,0
0.3973569053242997,79,133,89.12155757677036,0.2606430061387401,99.33922633107494,0.5107224319268259,0
0.3932759574773828,87,130,95.17544162154326,0.3022992999008306,98.3189893693457,0.5499367969251913,0
0.3286051236584429,81,139,82.74252004854723,0.1893795611065253,82.15128091461074,0.4351909452608065,0
0.3776533291336104,77,127,86.47461103681849,0.258420953121089,94.4133322834026,0.5083519513688421,0
0.3938272222764187,73,117,93.04410760042578,0.296764822931078,98.45680556910467,0.5447710196417351,0
0.3896721289868462,77,129,86.05138157176658,0.294950907413292,97.41803224671156,0.5430938418892132,0
0.3469562695210706,87,132,82.94441227879403,0.2291045600811123,86.73906738026766,0.478678987587284,0
0.3704250407925845,73,126,77.46943312209622,0.262147501738734,92.60626019814612,0.5120072882375559,0
0.3425134254081702,70,117,81.46874547249016,0.2046127794516974,85.62835635204254,0.4523727070869504,0
0.3215865075116201,80,122,73.60019118513381,0.1756292539112505,80.39662687790502,0.4190831351007983,0
0.3202808774045281,81,130,80.51203184650059,0.1937066601170513,80.07021935113204,0.4401212124602536,0
0.378840398010171,77,121,84.58181714195919,0.2689777011862467,94.71009950254276,0.5186440679694306,0
0.3793418149993248,79,120,83.76359122236425,0.2696245147567995,94.8354537498312,0.5192538258671721,0
0.3413387874731976,84,136,82.70525947028494,0.1944409182910437,85.3346968682994,0.4409969436277923,0
0.3462011214188633,88,132,80.83804841156969,0.2193535508673239,86.55028035471584,0.4683968062112829,0
0.3438383222421873,78,122,82.81939697182031,0.2029409751654583,85.95958056054684,0.4505076703418311,0
0.4175858241096034,84,131,101.63487654893994,0.2908092388766176,104.39645602740086,0.53938824332705,0
0.6028532419887379,66,108,119.31451803621918,0.608871135113485,150.71331049718447,0.7805551434562633,0
0.8441529886703072,62,117,167.04940987420235,1.2011861942301831,211.0382471675768,1.0959891293216146,2
1.2289941802718738,70,114,256.0404353507431,2.7665343609198003,307.24854506796845,1.6642872225704433,2
1.6330498861312346,65,91,330.52921422919906,4.282563853529614,408.2624715328087,2.069443387196146,2
1.5824806947005572,70,102,343.342182071474,4.349375949077277,395.6201736751393,2.0855439130452837,2
1.5038770008330018,72,113,338.7581335997867,3.540564155326202,375.96925020825046,1.8818152868194424,2
1.77627867951269,71,91,375.2256523612015,4.9051917220287455,444.0696698781725,2.21476763862911,2
1.475978088511321,64,113,322.7534467092627,3.4411028294422588,368.99452212783024,1.855072789032008,2
1.4333529115082289,72,101,303.35316010247607,3.6020861740670327,358.3382278770572,1.8979525767269927,2
1.0822850012774874,79,110,248.1866783076092,2.0968444161539685,270.57125031937187,1.4480485248363708,2
1.014808796374244,60,114,206.5526405214797,1.8085067232389769,253.70219909356103,1.3448271859565213,2
1.2327982000645117,59,96,235.3442256055256,3.4088119855939687,308.1995500161279,1.8463082931607369,2
1.0722963082101136,69,106,226.38932183182683,2.1781696140748603,268.0740770525284,1.475891477307268,2
1.1376551317579255,70,111,231.02005229513983,2.3090839829939007,284.4137829394814,1.519571988926486,2
1.0931465783675038,72,98,226.4034821646178,2.011033110794362,273.286644591876,1.4181167598674,2
1.0243428008723308,74,114,229.12651441767576,1.7547551487036268,256.0857002180827,1.324682656140211,2
1.1364928876761624,68,102,235.9587504485997,2.1150536211749382,284.1232219190406,1.4546548421738783,2
1.1553825590765048,71,106,239.9491920485788,2.099543294437104,288.8456397691262,1.4489836034657209,2
1.1344490278742332,73,112,235.9180014000462,2.101853730381395,283.6122569685583,1.4498026195988984,2
0.8393046316517943,65,121,166.53300840710952,1.3733138898980648,209.82615791294856,1.1727447734487677,2
0.9014504462509976,60,117,134.72050832567106,2.1136514184264072,225.3626115627494,1.4538959540288257,2
0.590897541169263,70,117,132.8239423137607,0.599604177065414,147.72438529231573,0.7743478277078001,2
0.5766112560006222,73,112,128.64224050604696,0.5341131999678773,144.15281400015556,0.7308629517740062,2
0.4864430763370208,72,132,102.85243290475267,0.4110498656732062,121.6107690842552,0.641189037275838,0
0.5209674671627399,68,126,111.0775123397769,0.4382598431869235,130.24186679068498,0.6620242614610388,0
0.4503140531359403,71,119,93.585326607534,0.3728911662897223,112.57851328398507,0.6107157199182601,0
0.3887010718148344,78,121,85.3970898969057,0.2606257637850078,97.1752679537086,0.5105174775119614,0
0.3876887117584956,75,122,93.50823564331348,0.2457479394393422,96.92217793962392,0.4957326307933962,0
0.3920072701778007,70,132,88.79495106185688,0.2597032846893044,98.00181754445018,0.5097281618572006,0
0.3781775936918619,71,136,83.07038662647707,0.2525552906564636,94.54439842296549,0.5025535119171574,0
0.3677281764901235,61,128,79.67824800337858,0.264424826368695,91.9320441225309,0.5143166931254552,0
0.3599640426643896,66,138,78.86222168494251,0.2197099462652943,89.9910106660974,0.4687461801797817,0
0.3908989584227075,71,127,89.33466872386232,0.2748550996594096,97.72473960567687,0.5243464560489115,0
0.436231495254778,58,120,79.10647549726427,0.3137342834288369,109.0578738136945,0.5601200287561654,0
0.378120236285837,76,127,83.89201011098328,0.2570265640932898,94.53005907145923,0.5069873691263761,0
0.3224589406706876,80,127,79.73149440118135,0.1960697843612418,80.61473516767191,0.4428706192434049,0
0.3674319401360431,90,134,85.82237846767623,0.2513278580838649,91.85798503401077,0.5013481257259689,0
0.4841147740246132,68,118,103.34759483238612,0.4719207856735822,121.0286935061533,0.6869682227374672,0
0.5039811736481675,59,115,95.02043812934318,0.4423792187489517,125.99529341204187,0.665126226346061,0
0.4191376989154775,71,132,88.75676861906521,0.2859365723574465,104.78442472886935,0.5347334764711767,0
0.3919162406015741,75,131,93.73219894799068,0.2819191627743238,97.97906015039354,0.530972633967709,0
0.4215249734583636,79,119,97.77231229202587,0.325667088421091,105.3812433645909,0.570705788534373,0
0.4894021680200752,71,123,108.62107244504652,0.4208125178433297,122.3505420050188,0.648920814760731,0
0.5087217442481184,75,126,101.90259997662235,0.505578663669706,127.1804360620296,0.7110414958809599,0
0.4234930545343011,74,126,91.9031651334552,0.3384768603581845,105.87326363357528,0.5818396080357624,0
0.4894859344243386,73,112,99.26074552041598,0.4449516381057484,122.37148360608464,0.6670635492376967,0
0.577084936532579,63,102,113.66318162404838,0.5413742074766019,144.27123413314473,0.7365823666156872,0
0.7974835037385642,54,97,150.49349263423505,0.9914422106878062,199.37087593464105,0.99572886334935,0
0.8590085609304925,75,103,179.54950108931283,1.256089266699719,214.75214023262316,1.121328989163664,2
1.483154815679595,62,100,320.4784593279805,3.442018323895148,370.7887039198988,1.8552745204372283,2
1.6144452440731536,71,102,339.7946903352214,4.654186773334584,403.6113110182884,2.157452096007453,2
1.4171629133811152,74,110,315.56040290736297,3.212455442683032,354.2907283452788,1.7926536821726704,2
1.6370754180707132,66,108,367.5319668772988,4.460727497601011,409.2688545176783,2.112353305403183,2
1.368789596750071,79,96,303.9726088442767,3.199617115871328,342.19739918751776,1.7888174560266707,2
1.4085026210023297,73,109,313.9434894734617,3.557293854041504,352.12565525058244,1.886180288376556,2
1.2562649234719327,74,103,290.8921501887653,2.827997614266224,314.0662308679832,1.681690566750793,2
1.1083626001540317,78,113,259.8232384065053,2.196665907748411,277.090650038508,1.4821258332522411,2
1.086347197151171,71,109,242.40402101117525,2.051833866755512,271.5867992877927,1.432468071158585,2
1.0609568079317682,65,107,217.91764724178856,1.954831426314119,265.23920198294206,1.3981663237406894,2
1.0677963293822297,68,101,232.38244364344297,2.0959126853644188,266.94908234555743,1.4480174377031092,2
0.9961282511437348,73,105,223.5982811629332,1.5603816623695743,249.0320627859337,1.2491658911600931,2
0.8297726105893922,80,115,198.36721039749884,1.0955525961620711,207.4431526473481,1.0466865216505843,2
1.1006112595089703,71,103,233.49685748427072,1.9874969629716817,275.1528148772426,1.4097861431270489,2
1.051239823183439,77,104,232.732152340142,1.796819014808997,262.80995579585976,1.340575034996947,2
1.107713262348569,74,110,256.17079113177624,1.8887084443599649,276.92831558714227,1.3744553045601715,2
1.0753973005085995,65,108,243.34740809278168,1.9341941428146885,268.84932512714994,1.3907718485584604,2
1.2338665700821614,73,106,267.1354740274852,2.4603708737954277,308.46664252054035,1.568558171921916,2
1.1718363720287994,71,108,253.4773129047333,2.2781748567628566,292.95909300719984,1.5093939409966446,2
1.1914937169748012,68,105,257.22588194079043,2.5068161713912955,297.8734292437003,1.583294392996657,2
1.0988001470948725,78,111,258.3636385851131,1.95539286451368,274.7000367737181,1.3985357917323264,2
1.1402795151247689,67,111,234.8214269865496,2.0252839530554176,285.06987878119224,1.4231250021037192,2
1.2045325386803902,72,104,253.07215170055093,2.2222119158856035,301.13313467009755,1.491202711016289,2
1.628059463928506,48,99,236.0227347950428,7.0327940978169154,407.0148659821265,2.652479812470641,2
1.4068278156020917,50,98,175.76180223319477,6.69395294196017,351.7069539005229,2.587444383195612,2
0.4730312034292881,72,113,103.22942279460445,0.4021257061319929,118.25780085732204,0.6346954214011904,0
0.5207417911226236,75,110,108.03051601733448,0.4788789090971524,130.18544778065592,0.6920510453095688,0
0.632600102974641,56,103,109.54000929145457,0.82421482102223,158.15002574366025,0.9079130901665572,0
0.4645008053188758,70,119,86.14188459877538,0.4025481981576249,116.12520132971896,0.6354098748527336,0
0.4007818339067839,79,116,89.01042496038727,0.2820822962254339,100.19545847669598,0.5311584987546647,0
0.4335309983498538,68,105,91.0896140737186,0.3218615059542254,108.38274958746346,0.5673287921396829,0
0.4529776109661093,64,104,96.77761196787132,0.3559018316910601,113.24440274152734,0.5965909529411051,0
0.4485916349781036,75,117,96.00258791885746,0.3755362287234636,112.14790874452592,0.6128131050519763,0
0.3812447343858834,79,117,87.11720920081413,0.2799443832788615,95.31118359647088,0.5291033625375735,0
0.3985218484165397,73,101,83.56389936858301,0.3063818910494136,99.63046210413492,0.5535177430916088,0
0.4243602750810637,68,119,90.533377890137,0.2983803166030527,106.09006877026592,0.5462423893337252,0
0.4388719329925033,75,112,94.11322624185418,0.3380776629903589,109.71798324812583,0.5814522607902531,0
0.3733611638279311,82,121,87.37156164236632,0.2579459680145296,93.34029095698278,0.5079086531767542,0
0.4728987283720716,83,120,104.60618586634769,0.4528128470048163,118.2246820930179,0.6729181971649058,0
0.4774879927294407,67,116,97.89980446057402,0.4115796991717911,119.37199818236016,0.6415650486755905,0
0.4104742373354521,85,124,97.30368367791652,0.3288451185857626,102.61855933386302,0.573567946621722,0
0.3950445097903973,73,125,84.23056307648213,0.3007158531738637,98.76112744759932,0.5484189437412991,0
0.4436545355848453,78,117,88.7815373812906,0.3984001184261955,110.91363389621132,0.631190980361969,0
0.3791427097490875,79,130,84.20017290377129,0.2773793553508601,94.78567743727189,0.5266683399092551,0
0.3673366918552293,82,138,85.06371678001113,0.2752613071814634,91.83417296380732,0.5246570642785201,0
0.3435377605535449,76,134,77.11863141899464,0.2150441817834996,85.88444013838624,0.4637357542446325,0
0.4074381916317404,76,130,93.95019727312486,0.3400545123325783,101.85954790793512,0.5832857568040837,0
0.6434141290268135,71,110,135.78572784444802,0.7474221970292736,160.85353225670335,0.8645450152663473,0
0.7699546915839695,71,94,148.6992343027453,1.0911831691217289,192.48867289599235,1.0445983497717428,0
1.0506614305498725,66,97,200.3060951050403,1.8588381913570475,262.6653576374681,1.363422388472786,2
1.544737977440223,69,114,339.0361288565386,4.295567763600858,386.1844943600557,2.072687460566102,2
1.6886965407570698,72,108,383.42526479538526,4.693760730774467,422.1741351892674,2.166651710471789,2
1.5765606905550975,70,117,352.5839264511292,4.184982241090032,394.14017263877446,2.045785073390382,2
1.6734211391905456,78,98,379.2137961502927,4.69153403588406,418.3552847976364,2.166471924876613,2
1.7923922080659067,71,107,401.3306239020925,4.922871566450439,448.0980520164767,2.2187549262244417,2
1.7971676536851455,77,108,411.9174590337496,5.386398008971452,449.2919134212864,2.321003404532381,2
1.7689126547902596,66,103,364.36448673585926,4.974306267557603,442.2281636975649,2.2304668333189315,2
1.3945630299602727,68,116,309.82924493205064,3.208577445117227,348.6407574900681,1.7913000839906013,2
1.5034324605361011,79,109,343.9245323652277,3.5129043824792143,375.8581151340253,1.8743052709285517,2
1.5070523572930956,73,100,342.9636036857893,3.5740054569962725,376.7630893232739,1.89056645367604,2
1.53644879093041,80,106,342.24713330789746,3.934097145328246,384.11219773260245,1.9835159058512384,2
1.5339449657048718,63,100,315.28375117748675,3.7227069080987767,383.48624142621793,1.929434142159148,2
1.3794818776801716,71,111,310.41479355904454,3.2149949645781053,344.8704694200429,1.7930568194545278,2
1.4930124173668182,69,101,331.48927270075853,3.944571897183671,373.25310434170456,1.9863622106691503,2
1.3508742811227117,80,112,311.322812122637,3.429185366623664,337.7185702806779,1.851919615075582,2
1.5021585670282824,75,100,337.64982421523007,3.856617927581154,375.5396417570706,1.9638531943798267,2
1.456766809801315,74,112,330.70198898140984,3.326670358697109,364.1917024503287,1.8240878325374843,2
1.419518330882719,71,119,308.10101712984545,3.118582923707552,354.87958272067976,1.765964126947063,2
1.5239836456927214,72,97,318.4786283931849,3.644587599237412,380.9959114231804,1.9092039080762144,2
1.3855377944225251,73,109,317.59050301099336,2.94427437965386,346.3844486056313,1.7160071997674473,2
1.2580941192802348,68,104,276.07037056503555,2.506358313346411,314.5235298200587,1.5832386515967658,2
1.254770211348963,42,102,156.43981478586784,3.146093402764288,313.6925528372407,1.7763973464948004,2
1.2563149748999414,30,100,143.23659129058518,3.670103287879861,314.0787437249853,1.9157535385567257,2
0.5264555388784554,55,100,98.35785241666105,0.5122021137111831,131.61388471961385,0.7156892804873142,0
0.4685780997053573,59,109,93.6347822501572,0.4019874090235865,117.14452492633932,0.634032432751341,0
0.4531415660714862,71,121,94.11648223439424,0.3950888948835787,113.28539151787156,0.6286814008808415,0
0.4303440213371172,70,120,87.63436967819,0.3471642188069841,107.5860053342793,0.5892148666427077,0
0.3836841613031105,77,123,82.04230617648254,0.2569036002262737,95.92104032577762,0.5069475369043153,0
0.3176967260134677,82,126,72.0677169172653,0.1727536460089774,79.42418150336692,0.4156581782542146,0
0.3487850707384383,76,123,77.33104897356714,0.2313674432548419,87.19626768460958,0.4810073900644717,0
0.2901598580795913,91,141,79.10054225796556,0.1513559052167209,72.53996451989784,0.389135529735475,0
0.2872625083428244,94,141,74.52337110614033,0.1604764906238819,71.8156270857061,0.4005958039271138,0
0.3586221010343098,74,127,76.41682475776561,0.24652505204694,89.65552525857746,0.4965605089269718,0
0.370006760556169,72,131,86.9858527583547,0.2535557305008541,92.50169013904228,0.5039198608815377,0
0.3354682210399981,87,133,83.36047564287283,0.2163702410042987,83.86705525999953,0.46516826584901,0
0.3835627139522229,92,134,92.78696276250996,0.2554252735567568,95.89067848805573,0.5054358514574777,0
0.3603009470804891,84,130,81.62794128230493,0.2452543693960018,90.07523677012227,0.4952656191557878,0
0.3295496109912243,73,122,77.0568605565223,0.2054836564936358,82.38740274780608,0.453326475311844,0
0.3663311398612932,80,125,88.71517955153112,0.2640867334849256,91.5827849653233,0.5138992977389215,0
0.3795222236233844,71,121,82.76593026435809,0.2868904799617485,94.88055590584612,0.5356494801081148,0
0.4227094498007807,67,128,94.26076282116152,0.3264756547508524,105.67736245019518,0.5714194131735387,0
0.4883470872989339,65,112,97.75013539697616,0.4391185517231108,122.08677182473348,0.66266493737887,0
0.407145308006998,70,122,82.08221482302382,0.2841711604350151,101.7863270017495,0.5330998217963552,0
0.4238647223217039,75,122,92.5234160974189,0.3131399779719623,105.966180580426,0.5596829474220357,0
0.4174024802929065,82,120,96.54788799605424,0.3022626578160035,104.35062007322664,0.5498085507391541,0
0.473511571478494,78,133,100.01155055326494,0.4149876333489696,118.37789286962352,0.6441971164968663,0
0.5250229651550046,59,122,99.4244987351039,0.4536179807706097,131.25574128875115,0.6735131032001391,0
0.7653912956666264,53,114,133.06427028493889,0.9902209251259496,191.3478239166566,0.9952273226968849,0
1.0398064577123165,70,120,212.6139173510167,1.7187506292153818,259.9516144280791,1.311057048511695,2
1.237390779928235,70,113,258.5469043953922,2.585898097169119,309.34769498205884,1.6081962693557807,2
1.6368328384077515,65,106,343.8966423011765,4.552688608605557,409.20820960193794,2.1337035137290368,2
1.5713213811015423,65,109,334.669396276542,4.170275361338794,392.8303452753856,2.042974722740383,2
1.56919350126955,74,110,363.5275052439477,3.983665687468688,392.29837531738747,1.9959123782238075,2
1.573465949452135,73,106,354.3363160319418,4.1193996038795975,393.36648736303374,2.029658226528269,2
1.608030264670536,74,106,367.40380232557953,4.320533671905096,402.007566167634,2.0785933539742265,2
1.3302567632191848,75,112,311.15164791824526,2.9367868268608186,332.5641908047962,1.713708965078303,2
1.3323609425174696,67,115,316.60979875951153,2.996030859451033,333.0902356293674,1.7309084388350908,2
1.5374951590432546,70,100,322.0986075641339,3.745131907301357,384.3737897608137,1.9354364311423744,2
1.450522410185897,72,104,327.4838592748465,3.648030749130436,362.6306025464742,1.9105191980886675,2
1.4682208648895088,70,108,338.75395927567865,3.596241057025716,367.0552162223772,1.89673719078748,2
1.2318139428873942,74,106,290.1941158260288,2.5581472038073687,307.9534857218485,1.599459772953144,2
1.3475255913493696,71,98,285.9726384896835,2.85345034114875,336.8813978373424,1.689275860229312,2
1.095125193637973,70,102,237.70417168071745,2.0532016658561307,273.7812984094932,1.4329787931480322,2
1.1583550898082564,68,107,238.0875168277085,2.3536255876235077,289.5887724520641,1.534153075041621,2
1.2616866401374545,65,104,249.4292326576016,2.6542163996655286,315.42166003436364,1.6293255706101648,2
1.3024643608959958,61,107,269.2607407060858,2.9637356054396715,325.616090223999,1.72183652424293,2
1.009117664404645,84,106,252.44724930753307,1.837070917018224,252.27941610116125,1.3556400025521858,2
1.1313316200004002,82,120,277.6123950203357,2.2617119065973847,282.8329050001,1.5039010332450078,2
1.2189158936261384,80,106,306.88284660558645,2.771742139344223,304.7289734065346,1.6648576061395544,2
1.393709981221297,82,107,325.42069123013766,3.4113916376554045,348.4274953053242,1.846997019665962,2
1.178681021598624,65,117,258.66958836415785,2.603877506569713,294.670255399656,1.613904376719124,2
1.4316412918020127,36,100,172.14287595809344,4.783176103874053,357.9103229505032,2.1870530151219785,2
0.7014943732455413,45,105,118.65057298403204,0.8448066640224563,175.37359331138532,0.919199571390546,0
0.6651363095583289,70,106,138.13916341408293,0.7849421967560004,166.28407738958222,0.8859746032453494,0
0.8084417879771124,65,107,159.3824049595596,1.2019517795238863,202.1104469942781,1.09634514316735,0
0.603342509146704,68,113,125.57386635318709,0.7205086289052948,150.835627286676,0.8488297011941932,0
0.4436791046186762,83,131,106.6812459936371,0.318907008369459,110.91977615466904,0.5648416229830642,0
0.4169442041998335,95,129,104.01021777293424,0.3669599702463459,104.23605104995838,0.6057731110393131,0
0.3370938493902037,85,141,90.6678543447316,0.211111227314803,84.27346234755093,0.4594825638036113,0
0.357955292932662,83,133,86.62399094262261,0.2230793648993398,89.48882323316549,0.4723379139983664,0
0.3865261183580756,85,123,85.61108792724217,0.3354195168730512,96.63152958951892,0.5791833632027229,0
0.3758286438314714,83,133,86.70616285288648,0.2505632057060967,93.95716095786788,0.5005637812759578,0
0.3724099416211883,72,125,79.01199449957535,0.272108744920023,93.10248540529707,0.521653927435492,0
0.384547131456721,78,128,86.80570682353496,0.3071372828959406,96.13678286418023,0.5542243806437641,0
0.3550170112612655,68,134,79.85692694406319,0.2653971771533848,88.75425281531638,0.5151886159042743,0
0.3593610341730295,79,132,83.23940829549994,0.2471074179304938,89.84025854325739,0.4971192607989633,0
0.3184962188988843,76,136,81.35197615696389,0.1717015047711898,79.62405472472109,0.4143843425700532,0
0.3111461958609452,81,136,76.17396908401139,0.1768550375763665,77.7865489652363,0.4206311885040108,0
0.3313563311549527,78,135,83.19972227274761,0.191037913377096,82.83908278873818,0.4370833217932643,0
0.3353285941669379,79,138,79.92030347687175,0.1979339983688069,83.83214854173447,0.444963011113728,0
0.3430602530274445,83,131,83.81615701209691,0.2200595035346182,85.76506325686111,0.4691050110282881,0
0.3909874999519631,93,128,96.7996005617954,0.2729690724343616,97.74687498799076,0.5225305407559618,0
0.3732344363727582,90,130,86.30554695740119,0.2595751023700088,93.30860909318956,0.5094852096855272,0
0.3991399429480873,82,119,91.96425703593552,0.2849903828773883,99.78498573702184,0.5338453511639927,0
0.4123797926053755,73,118,93.2233348048792,0.2934172143246689,103.09494815134389,0.5416822037513467,0
0.4202566393501817,69,113,89.18992247317755,0.3080228832459274,105.06415983754545,0.5550263479295702,0
0.5575952801157241,64,119,110.88377268903773,0.49492693000828,139.39882002893103,0.7035197040703031,0
0.7549494664802143,52,112,149.04112687831469,1.016129245107834,188.7373666200536,1.0080325531001335,0
1.0570159799018293,64,99,221.95586399051476,1.8681727625993367,264.2539949754573,1.366858614085498,2
1.3241349936497704,76,111,308.5711771009664,3.267451586097978,331.0337484124426,1.8076164452979395,2
1.4973844775301035,78,111,330.15070974529885,3.860712469858327,374.3461193825259,1.965127044918692,2
1.6639434360084269,71,118,352.71104799282875,5.01172611742446,415.98585900210674,2.2387136476392904,2
1.524574177257752,66,113,335.6039241083948,4.104328155959483,381.143544314438,2.0259402524146424,2
1.520072180888891,82,111,372.8865915034056,4.539442178781008,380.0180452222228,2.130652501493644,2
1.6597858539412296,72,106,384.2301117649511,4.734417874785077,414.9464634853074,2.17588243493402,2
1.4566278315595809,68,102,325.6568920943997,4.02947629230452,364.1569578898952,2.007489277703792,2
1.507162403416438,73,109,345.9287554139257,3.602242536726256,376.7906008541095,1.898059179726833,2
1.3587789125408791,80,129,324.9520673810293,3.2438874765507544,339.6947281352198,1.8010857732196288,2
1.4115639739273107,80,121,330.62575116149424,3.4904398881064944,352.89099348182765,1.868354233115952,2
1.4321268314632885,80,116,332.46075667166394,3.877723400750328,358.0317078658221,1.969781429153008,2
1.5331783512497612,83,110,341.37994860579863,4.020276867594435,383.2945878124403,2.0052614799863937,2
1.4822503724895717,75,118,321.08323891810045,3.435901278642857,370.5625931223929,1.8536184292767857,2
1.3798076963759294,76,116,319.0904620076887,3.074005875209081,344.9519240939824,1.753476341379171,2
1.4313190448378932,70,111,317.3871148057529,3.743803175339609,357.8297612094733,1.934917559198141,2
1.36892986650934,73,104,302.3490593071547,3.26323945881136,342.232466627335,1.8065653465373424,2
1.275853906839391,81,105,304.0287841321665,2.7641033496374767,318.9634767098478,1.662672239168624,2
1.383215497709181,69,102,310.9824853474852,3.0584998049249044,345.8038744272953,1.7489175392992589,2
1.4206992464051742,75,100,336.0534038329947,3.396985921297523,355.1748116012935,1.843099769493873,2
1.4049921764904645,76,111,333.4567820919892,3.451349550621108,351.2480441226161,1.8577875614173427,2
1.1777722885933315,78,104,269.8264313658664,2.420581693264898,294.44307214833293,1.5565157805467147,2
1.130356632087949,76,109,272.486755778505,2.0997847088984325,282.58915802198726,1.4490762839982327,2
1.203109200220604,63,106,272.4978349831539,2.4339046993981155,300.777300055151,1.5600978353738078,2
1.1884034566494128,70,108,288.82193683113564,2.33216775104392,297.1008641623532,1.527172983712539,2
0.8720757014025892,56,111,160.3478304535575,1.4045464263259524,218.0189253506473,1.1856633965597396,2
0.576166009326975,72,121,109.18062951070084,0.5627012771571478,144.04150233174377,0.7501732822649936,0
0.46550314525617,72,121,94.56612830407114,0.4633124899179453,116.3757863140425,0.6806773025289048,0
0.5533404714654511,61,110,105.61109361490682,0.5730385094158652,138.33511786636276,0.7571145064997254,0
0.6603938160632811,60,106,125.54797970098215,0.7135252374114025,165.09845401582027,0.8447254465000927,0
0.6767243862870543,73,111,139.4943253101861,0.7995948782359935,169.1810965717636,0.8942020499279694,0
0.4994582865552516,71,117,107.31357438770068,0.4355541397200834,124.86457163881292,0.6601459761617472,0
0.526217630024156,74,111,110.4649018207865,0.5549572871186121,131.554407506039,0.7450581061826274,0
0.5117920877110402,78,115,111.19015493530485,0.4765708292370657,127.94802192776004,0.6903410964329147,0
0.5466634075158235,66,108,117.73365847209656,0.5141577947933783,136.6658518789559,0.7170479740493694,0
0.5211636679331175,66,104,110.3077441648724,0.4391248676085387,130.29091698327937,0.662671557985726,0
0.6000623598057223,73,109,134.4606845952072,0.5923584415433747,150.01558995143057,0.7697882634833492,0
0.6166364552224733,73,115,129.1365304189001,0.6128131870947727,154.15911380561835,0.7828238845513893,0
0.6474102921852525,66,111,136.01731121126926,0.7248547029369858,161.85257304631313,0.851414319688619,0
0.5832889949011255,81,123,135.54939279303105,0.6764585098424624,145.82224872528138,0.822512821577777,0
0.6728708670765586,69,119,146.32359504506104,0.7989475438430925,168.21771676913966,0.8939101491688948,0
0.8678591648335475,67,106,167.77986230293578,1.2777754652879203,216.96479120838688,1.1304108550865417,2
0.7473496571497953,75,110,156.5922261014522,0.951295379214136,186.8374142874488,0.9754269842437294,2
0.7732731993424219,63,102,149.49583402080185,1.015772963464317,193.31829983560547,1.0078663967060792,2
0.9626397248179556,59,100,178.2260713949545,1.863187411798592,240.65993120448888,1.364986261916651,2
1.0682953255949492,63,115,216.23627941218265,2.176905742616551,267.0738313987373,1.4755584797414976,2
1.5081239920102718,68,103,344.92117337745964,3.711399663137623,377.030998002568,1.926728869519488,2
1.7532699255378603,66,103,395.10160849412136,5.250087266669977,438.31748138446505,2.2914282527370378,2
1.859315076732443,74,109,406.9106011735687,5.64754756104741,464.8287691831107,2.3764590926726874,2
1.5276502129766718,68,104,359.7925523511325,3.993733885266407,381.912553244168,1.9984342733880516,2
1.5747059791737168,73,115,372.8709798316788,4.140035331289853,393.6764947934292,2.0347279058641785,2
1.4443317056118723,85,116,372.5810804095244,3.4636212786382083,361.0829264029681,1.8611149930595032,2
1.754824382080401,68,110,385.496070491766,5.363266889741745,438.7060955201002,2.3160262740298627,2
1.593317749751176,66,113,357.8292664139681,4.345242964012737,398.329437437794,2.084533751156405,2
1.3270757197072154,69,99,308.7714714457636,2.7031596430040064,331.7689299268038,1.6443556358620963,2
1.4129738295783103,68,92,317.6225259050323,3.3048777527194355,353.2434573945776,1.8180675811405171,2
1.6478905837644626,72,115,364.99894064708747,4.601332217455094,411.9726459411157,2.1454280649329878,2
1.560325948626453,74,109,353.4113493068978,4.303215504209266,390.0814871566132,2.0744552651831394,2
1.6627550519853551,65,96,358.9887102086352,4.717696771267101,415.6887629963388,2.1720748581841227,2
1.5825552185644636,69,94,334.22218486672875,4.162715787526799,395.6388046411159,2.040275628683502,2
1.4729698964010935,75,111,343.9378527257375,3.420184319239484,368.2424741002734,1.8494405072338804,2
1.6647351539636202,73,109,382.49220225824746,4.898363075111607,416.183788490905,2.213656404794753,2
1.720438934498211,80,115,390.5198670900567,5.280344178125137,430.1097336245528,2.2978999885125475,2
1.541225062754355,79,110,365.8612766000768,4.211298729038813,385.3062656885887,2.052229696358656,2
1.7906910330022432,66,107,401.8947789593444,5.351943055923368,447.6727582505608,2.3135403197122333,2
1.8084209928689488,74,105,391.086753452722,5.350355813507837,452.1052482172372,2.313118087948832,2
1.6159997770553072,83,108,365.1250190734789,4.46331646263797,403.9999442638268,2.112666126575353,2
1.4680538975943018,89,116,369.0119552327749,3.831776474159703,367.01347439857545,1.957497876193215,2
1.8387288159339517,68,104,389.3031239216172,5.9262390428277705,459.6822039834879,2.4344234348157685,2
1.7931746847718082,70,100,383.0440717967,5.381067030411835,448.2936711929521,2.319758396425944,2
1.4621139975953206,73,109,338.9021179688359,3.5413416695729785,365.52849939883015,1.8820053549523288,2
1.5304151859440915,85,118,365.7176448104274,4.209743872513565,382.6037964860229,2.0517677648469266,2
1.6483050973161324,80,112,372.6008228680693,4.508072278470156,412.0762743290331,2.123225277674097,2
1.5480939948212111,78,119,358.97287660972984,4.008043926761928,387.0234987053028,2.002837416995996,2
1.5206731807616438,70,97,322.422969895798,3.9567588188313874,380.16829519041096,1.9894295856172024,2
1.245084199409936,58,102,196.5493374152912,2.6074742582627985,311.271049852484,1.6152217588542084,2
0.7281122865784001,68,102,144.15491661431955,0.8640948231594374,182.02807164460003,0.9296597213387112,2
0.7766776499159921,64,109,155.9131469121176,1.068825393044346,194.16941247899803,1.0340077301381951,2
0.6343013495671821,66,109,123.3135284930598,0.7018297579117087,158.57533739179553,0.8378932859766138,2
0.709157292773066,59,107,132.79376436904374,0.8544924755841259,177.2893231932665,0.9243919120230144,2
0.8638604829488651,72,104,171.97945615024256,1.335964413158252,215.96512073721627,1.1558449210471953,2
0.7232129534855162,67,124,157.88267949520167,0.9787395398764138,180.80323837137905,0.989312833939608,2
0.5655718443812773,71,118,121.54206518513922,0.5902495428695071,141.39296109531932,0.7683030103365293,2
0.4948339292990631,75,113,117.58878900435404,0.4403793654598967,123.70848232476578,0.6636160950356691,0
0.4949860271988143,71,113,107.8562732074542,0.3936764658973853,123.74650679970355,0.6274386366585457,0
0.4639022112729148,69,122,98.91004794278626,0.3651206064899195,115.97555281822872,0.6042671467532376,0
0.4181201509333172,70,105,88.3113469987973,0.3108096083538902,104.53003773332932,0.5575094722034256,0
0.4655862363701977,59,118,100.00488905426006,0.348485694115316,116.39655909254944,0.5903270648620167,0
0.5124493308136177,69,101,107.31580616155404,0.4537455935862223,128.1123327034044,0.6736838399202646,0
0.5650811881678007,71,110,117.04642495691591,0.5285744452682261,141.2702970419502,0.7270409217965498,0
0.5952931316412924,64,107,116.91341863822164,0.5667234722608516,148.8232829103231,0.7528528485845981,0
0.5154411467699445,73,118,113.41177838754736,0.4723639783498771,128.8602866924861,0.6872945769432204,0
0.5099174068909288,79,124,112.78621092746712,0.4398820032842793,127.4793517227322,0.6632381460082902,0
0.7231136751068556,37,104,95.10482653184869,0.853222594629843,180.77841877671392,0.9247984274700316,0
0.3976947867704369,68,116,84.27408399990307,0.2623332087278067,99.42369669260924,0.5121868313960103,0
0.39450813268351,69,119,87.41038084947978,0.2826806378030048,98.6270331708775,0.5317625208813748,0
0.3803327041801257,88,134,95.13832819613636,0.2555356847845876,95.08317604503144,0.505576705470408,0
0.3793051864708484,82,144,91.84977710923054,0.2250759454780946,94.8262966177121,0.4744472766309329,0
0.3783848799390988,74,115,85.05799694791565,0.2483435252624016,94.5962199847747,0.4983815645927737,0
0.416609739119976,71,115,89.01356270638829,0.3020015400207907,104.152434779994,0.5495882706237076,0
0.4396811463765865,70,128,93.29727870143468,0.3519451953443158,109.92028659414665,0.5932974899099334,0
0.4752555765446085,64,129,101.5447984364364,0.3751524189577901,118.81389413615211,0.6125164725477356,0
0.5254167315757956,57,113,103.35097682477618,0.4641342620468668,131.3541828939489,0.6813227644033845,0
0.7189748155831296,62,124,155.0256123084688,0.8118449753041075,179.7437038957824,0.9012370564034344,0
0.7136936889452576,63,117,135.55509721763335,0.7847652387781175,178.42342223631442,0.8858847758546682,0
0.6785949892694733,74,119,142.61151548717635,0.7321896478121541,169.6487473173683,0.8558374508633405,0
0.6219287938054854,80,129,151.9202989249893,0.6334013428244176,155.48219845137135,0.7961930215480043,0
0.6688534096742592,76,122,140.60335604628406,0.7641666165998594,167.2133524185648,0.8742121556287415,0
0.5841025675989894,63,114,124.17693567415338,0.593669315736227,146.02564189974734,0.7706105116487911,0
0.5142423451224404,69,125,123.15360583011612,0.5201999113949604,128.5605862806101,0.7213674121099993,0
0.5747489715857885,69,124,127.15771579735572,0.5246679393986897,143.68724289644717,0.7244281133788869,0
0.5641852829368105,76,125,113.25537764910644,0.5370752448924322,141.04632073420262,0.7328549927337626,0
0.5308314262445224,78,122,122.03434285450317,0.4747960920325019,132.7078565611306,0.6890907045973858,0
0.5341085625563492,76,112,123.85168085223836,0.4593916736490431,133.5271406390873,0.6777960404818638,0
0.5559128104407358,74,116,119.8855165913395,0.4933549836474361,138.97820261018396,0.702395797331841,0
0.5339017868824064,76,123,113.4936574285038,0.4567712260137649,133.4754467206016,0.6758816550376946,0
0.562115352303224,75,123,127.66712162408894,0.5264448577063745,140.528838075806,0.7255849048269611,0
0.5318486500312931,70,117,118.18180393636835,0.4604803836590138,132.96216250782328,0.6787509268184129,0
0.5222955399123136,74,121,119.8320140334732,0.4387862045194225,130.5738849780784,0.6624108095141398,0
0.5783179972473835,71,116,126.22820800466609,0.5429597116429825,144.5794993118459,0.7369043075180409,0
0.5577313687128862,70,117,126.92706264095396,0.5167637621043827,139.43284217822156,0.7188671842172673,0
0.5067239902029526,71,107,119.45775821289796,0.419608351771188,126.68099755073814,0.6477833694668785,0
0.472423121405493,77,122,110.43417046531256,0.3489814227407751,118.10578035137326,0.5907802996573246,0
0.5048902389644666,80,118,110.40789801661782,0.4126790530385837,126.22255974111664,0.6424067209679535,0
0.4709802217330035,80,122,116.29952623020596,0.3588238603510491,117.74505543325088,0.5990191122304697,0
0.4917835234602208,70,121,106.80795842594328,0.3965525222977931,122.9458808650552,0.6297296294370653,0
0.5123113183345306,78,121,122.22961143075972,0.434000664807915,128.07782958363265,0.6590342961302713,0
0.5127653427798182,80,120,119.42815006627949,0.4415556483157276,128.19133569495455,0.6645046783972689,0
0.5326732076268234,72,126,121.6541726284548,0.4597726679535558,133.16830190670584,0.6780668666069414,0
0.4680760515688985,81,117,112.0925363694556,0.3357300864629071,117.01901289222462,0.579425348780133,0
0.503938158153598,68,112,112.50793831682245,0.3923839924522972,125.9845395383995,0.6264118710159632,0
0.6267982800439397,66,115,127.0998048806617,0.6104756297832733,156.69957001098493,0.7813459281625733,0
0.5478983025709442,75,121,121.54306867902116,0.5007744740006969,136.97457564273606,0.7076748780837777,0
1.1250895279101447,73,123,260.37853429108225,3.498284941408917,281.27238197753616,1.870652730007314,4
7.910020040961668,38,98,1057.4523189937868,111.52108313816804,1977.505010240417,10.56246240556682,4
17.985252116148562,25,94,1849.6234696350832,402.23205160526686,4496.31302903714,20.05572760236628,4
12.162709894740514,42,80,2105.8649783718565,202.4510994743476,3040.6774736851285,14.228590950052093,4
7.777843345556115,70,80,1754.3397869917892,93.22293940915756,1944.4608363890288,9.655221395529004,4
6.334548086501552,67,90,1321.6371492019698,60.44753759804757,1583.637021625388,7.774880051830063,4
5.798164580696143,79,90,1190.1118745761128,49.99829189127868,1449.5411451740356,7.071107194219,4
5.472446716005806,75,86,1156.8071406945562,41.75061402406931,1368.1116790014516,6.461662446241148,4
4.999446434136591,75,84,1094.9628308267604,34.12621282427985,1249.8616085341475,5.841847317246898,4
5.156651019879602,77,83,1208.6348527475932,37.338942869061455,1289.1627549699006,6.110924528189372,4
4.836970213014201,75,79,1139.812373489101,33.05481250835861,1209.2425532535503,5.749345427134277,4
4.786436758347046,75,78,1153.4030845560194,32.991473792935274,1196.6091895867614,5.743861267903534,4
4.782371064332683,79,90,1161.1014995335122,32.747311630483445,1195.5927660831708,5.722586602281766,4
5.096362890470418,73,82,1239.4022113419885,37.795784808789534,1274.0907226176046,6.147828840659775,4
5.291641758239067,73,80,1271.4924204020683,40.52903857654424,1322.910439559767,6.36638019447815,4
5.135397762373356,77,87,1232.1080384480915,36.16929910375151,1283.8494405933388,6.014375820123269,4
4.652979209475202,78,83,1124.6774424791054,30.058365819607708,1163.2448023688005,5.48255627960856,4
4.476203843478739,79,88,1082.8472660966922,28.13422251289899,1119.0509608696848,5.304238808350143,4
4.657848411999386,77,85,1122.4575709835422,31.039275221390916,1164.4621029998466,5.571325107712958,4
4.143427621235866,80,89,1001.1241483601392,24.86707736136242,1035.8569053089666,4.986693384036782,4
4.455274867006903,79,87,1073.917640264341,27.77262343206771,1113.8187167517258,5.270421227419383,4
4.790461551328928,75,81,1128.565363619908,32.11437180139201,1197.615387832232,5.667035597594594,4
4.558953598930413,74,82,1052.782020810557,29.76006952667322,1139.738399732603,5.455453688363839,4
3.934501831406595,74,83,912.9553174356658,21.57328036435377,983.6254578516488,4.644863915587258,4
9.333398806881402,43,54,936.8382951313728,143.9483124770671,2333.3497017203504,11.998392875020846,4
6.474437956125214,27,49,535.6182836780174,59.866600125691896,1618.6094890313034,7.739629990689776,4
2.579589930858742,33,78,289.7498772420336,9.823719672979497,644.8974827146855,3.134479225149517,4
1.2946936187025446,55,106,228.7879538331593,2.708578047096835,323.67340467563616,1.6462328640911983,4
0.8902226586743754,71,104,189.5786490779551,1.2138086112511,222.55566466859383,1.1017326348859442,0
0.7874028679898825,79,111,188.97835208251664,1.0825140387529004,196.8507169974706,1.040617306028666,0
0.7244499861356898,84,113,185.83930940224676,1.066473562110879,181.11249653392244,1.0327025958288858,0
0.8428710033262329,75,121,208.2235536510552,1.436095853112949,210.71775083155825,1.1984556482875923,0
0.7296800514086222,82,135,179.2387880753114,1.011324124972539,182.4200128521556,1.0057594941497,0
0.8519497933811258,82,120,210.7411513653256,1.5621588307867873,212.98744834528145,1.250111427268911,0
0.7294804158191864,79,126,176.9108525773536,1.108026684646491,182.3701039547966,1.0526285547435694,0
0.7356089093947894,80,109,178.59700901879356,1.0570297736996817,183.90222734869732,1.0281570573078658,0
0.7377226690339365,74,99,171.2223603799245,1.1402093016845412,184.4306672584841,1.06781532267317,0
0.7197391621067136,77,114,166.3316510241978,0.9927922621596496,179.9347905266784,0.9964943790855054,0
0.8208931107585004,70,122,193.86329456277096,1.3752513840169782,205.2232776896251,1.1727254236838425,0
0.7360411089019142,78,121,178.69495288244002,1.05980004468204,184.01027722547852,1.0295682054343591,0
0.7665455043972353,67,125,185.9300217784197,1.2444420102177574,191.63637609930885,1.1156186309774785,0
0.8162428283011643,69,115,188.05897114840948,1.353659426890362,204.06070707529108,1.1634713414215057,0
0.8414449321652635,77,125,211.8018522289016,1.4999560753811765,210.36123304131587,1.224877153848575,0
0.8409707945771994,77,119,208.0532454972669,1.558783555226803,210.24269864429985,1.2485288056789172,0
0.7530119401546215,77,121,191.88477887434755,1.1799048439339914,188.25298503865537,1.086406534883943,0
0.816050241310908,76,121,198.2086611038364,1.1500938380132744,204.012560327727,1.072428570124231,0
0.7592374676068985,74,117,168.80659569731634,1.070045927197727,189.80936690172464,1.0344494176553978,0
0.6739222488117246,71,133,172.07975393125696,0.8980336182817844,168.48056220293114,0.9476650662169144,0
0.7439115493803153,72,115,168.07945380072894,1.0706031728950425,185.97788734507884,1.0347122583128263,0
0.745581779915775,75,122,173.53148265202805,1.120818987381218,186.39544497894371,1.058706334362521,0
0.6464731411982534,82,118,161.77305788497853,0.7971861532169311,161.61828529956335,0.8929085086803431,0
0.5610210676515455,85,130,135.2522052744227,0.6796400855949873,140.25526691288636,0.8244489350054446,0
0.5672256044831218,87,131,143.09460180428243,0.630417325764417,141.80640112078044,0.793988449716771,0
0.6475613211152058,78,124,157.4055336296351,0.8286100316580669,161.89033027880146,0.910402313120967,0
0.716875652731549,74,122,172.21449613621394,0.956888014301744,179.21891318288723,0.9782258832940948,0
1.0633266818806593,66,109,231.51687283497236,2.322347575673923,265.8316704701648,1.523982752614083,4
2.3770940563911087,63,108,506.2724919458428,9.850460099656862,594.2735140977771,3.1388570819761266,4
8.644576114651068,44,105,1136.2330123044608,130.30981058347197,2161.144028662767,11.415979088594298,4
8.81965932598288,47,104,1408.9470048833616,121.31921006808264,2204.91483149572,11.01685824091854,4
5.637212186863664,71,96,1297.9358493164325,48.74784597161337,1409.303046715916,6.982545941017584,4
4.9993644440705545,80,99,1231.5815122565994,38.74911081271384,1249.8411110176387,6.2250260624936695,4
4.761444586506706,75,94,1141.2730701916266,34.871997545971986,1190.3611466266766,5.905317463460387,4
5.189226558113739,78,101,1257.8543828468169,42.871041474195565,1297.3066395284347,6.547766359765278,4
4.747158577732031,87,98,1205.7486164965676,33.021568368465665,1186.7896444330077,5.746664438088311,4
5.014574230449253,80,94,1263.7793421689234,38.87495025086487,1253.643557612313,6.235462917327623,4
5.043365576005204,73,80,1222.659963888704,38.88744490442374,1260.841394001301,6.235980739111729,4
4.752314778911988,75,84,1171.3771965299766,34.70853025727751,1188.078694727997,5.891509902408799,4
4.590435900092489,77,94,1138.2284667713127,31.83834980162024,1147.6089750231222,5.643203767326761,4
4.6918849625615255,71,98,1083.148935950132,32.963955678606055,1172.9712406403814,5.741424621813413,4
5.012122225793606,75,95,1149.479006865011,39.12996222193267,1253.0305564484015,6.255455235863868,4
4.336327370790471,77,95,1034.1478129784432,28.949637335616856,1084.0818426976175,5.380504702360869,4
4.409968536004648,83,100,1117.0432963122148,29.757445311971168,1102.492134001162,5.45507629083862,4
4.25682372505846,78,91,1038.1728793461298,26.044815740735977,1064.205931264615,5.103445099339093,4
4.5623816559796175,81,96,1125.602176854576,32.52005674829195,1140.5954139949044,5.702853552227062,4
4.578544159493364,75,91,1117.954614605575,30.636828887816527,1144.6360398733411,5.535054766664084,4
4.613449070631947,77,94,1104.3386387787814,31.411901109862576,1153.3622676579866,5.604667182177159,4
4.687354681426717,75,90,1107.3609762402573,34.17478639477535,1171.8386703566791,5.846009434801697,4
4.304418194635737,74,87,1006.9770705581489,26.1379859841282,1076.1045486589342,5.112685371075049,4
4.34798142050362,77,89,1062.9643628232232,27.286921689261213,1086.995355125905,5.224255280230608,4
4.120445546997575,78,98,1020.5024148048004,26.29662572501792,1030.1113867493937,5.12803169997124,4
4.207605299906342,77,84,982.50658367573,26.125933498324784,1051.901324976585,5.111516205050767,4
3.962804501392348,74,90,984.3054647324946,22.231488498416592,990.701125348087,4.715567512873704,4
6.072177666675836,66,91,919.9541719739092,85.32771839223116,1518.044416668959,9.239851559702448,4
10.499312155635568,24,36,831.73473366909,159.94191641297869,2624.8280389088923,12.647020460204592,4
3.080794384988649,33,73,318.7851132348304,14.788266741783726,770.1985962471624,3.850465464024899,4
1.4999328261310625,53,108,226.87139884985172,3.566562909880231,374.9832065327656,1.889385023798333,4
0.898016306605027,65,109,187.6278146998945,1.4049708634702451,224.50407665125675,1.1853147703012143,0
0.6513559979221362,75,126,157.79497715970484,0.7855901216499845,162.83899948053403,0.8863385186573726,0
0.744791585025631,73,123,174.37637081912908,1.2132318429480091,186.19789625640772,1.1014761285113024,0
0.6799870926819768,82,114,156.48020050324965,0.8490061550476807,169.99677317049418,0.9215166680487206,0
0.6328199415508643,67,119,137.27280132065562,0.6448837434836523,158.20498538771608,0.8031393572820297,0
0.6328853382480719,86,124,152.2497109322819,0.7752826948080896,158.22133456201797,0.8805211806948436,0
0.6455229534994914,79,122,137.318325871592,0.8853264868150335,161.38073837487286,0.9409204465648628,0
0.5834600955328446,86,127,137.11273332719094,0.7378320822776797,145.86502388321117,0.8590605700260848,0
0.5482994372846494,83,134,135.9627173050014,0.5710718316448983,137.07485932116234,0.7557496171576319,0
0.5267626906825412,79,128,131.3069601055063,0.5559069902798367,131.6906726706353,0.7456160590464863,0
0.5476771990678478,94,133,140.03759620040577,0.679688106296073,136.91929976696196,0.8244356079332408,0
0.6209423516665171,81,121,148.858436609183,0.7200658651629955,155.23558791662927,0.8485726874971568,0
0.5475459764774919,85,125,138.79614579428056,0.5857115208604566,136.88649411937297,0.7653304156883002,0
0.591032326774541,84,115,145.3118732334493,0.6013454597472815,147.75808169363523,0.7755125485355078,0
0.5346771880763944,84,119,133.5307799774797,0.526718787349201,133.6692970190986,0.7258877505401038,0
0.6634460518722269,72,120,154.9277466525518,0.7860198317038216,165.86151296805673,0.8866981162018277,0
0.6941332082300604,84,121,170.2444407872617,0.8157608970709591,173.5333020575151,0.9031948366584296,0
0.7325887117812032,68,125,166.92726786060112,0.861757124049305,183.1471779453008,0.928309083771725,0
1.150772158715449,68,110,246.97573805039207,2.8105474963238666,287.69303967886225,1.676484502961313,4
2.746929050868168,58,112,520.6635777593244,14.468616685134704,686.732262717042,3.8089405023085434,4
8.970105156518773,29,87,1118.320481354556,120.7232603393394,2242.5262891296934,10.989562632651126,4
7.145700068654105,45,102,1301.6234362735763,74.76515775781458,1786.4250171635265,8.648646838072361,4
5.22117208788423,69,107,1183.806901028384,42.211113383612656,1305.2930219710574,6.497229669860195,4
5.207814254291625,79,102,1222.0164977100217,40.2382147020904,1301.9535635729062,6.343374484452173,4
5.2466762916366045,78,95,1276.3267073243865,41.43953965199737,1311.669072909151,6.4373693338870375,4
4.569932554963621,77,90,1103.482331456505,32.10879671449745,1142.4831387409054,5.666480186157335,4
3.98889636932125,79,97,947.5933558642936,23.758378472504205,997.2240923303124,4.874557438235765,4
4.581805111449197,79,92,1084.6834945718306,30.62570356347992,1145.451277862299,5.534108305077578,4
5.197127101840784,75,88,1204.7212398022,39.93992151812776,1299.281775460196,6.319804072052822,4
5.276104461810241,73,86,1197.8503439632598,43.048331682647714,1319.02611545256,6.561360110764637,4
5.0096576916778695,81,94,1161.588818625222,36.947829909928856,1252.4144229194674,6.078613436409393,4
4.603605973847641,79,108,1112.0610361979325,31.79548943229848,1150.90149346191,5.638798439169468,4
5.446842538149815,80,89,1293.910489342251,46.99919646154087,1361.7106345374536,6.855607129063496,4
4.466247204851151,75,96,1070.7442524063156,32.0809769133279,1116.5618012127877,5.664091102711448,4
4.636170823190773,79,94,1145.4843016611574,34.14473690852489,1159.042705797693,5.843459994126533,4
4.6298357488401285,81,86,1118.4065249368866,33.70014634763166,1157.4589372100322,5.805225653984135,4
5.10828540252288,77,90,1216.3771454440937,38.04386029908528,1277.0713506307202,6.168024475711761,4
6.149377038488657,74,88,1127.3905513405548,73.97156029966187,1537.344259622164,8.604717267886276,4
10.073940985395168,37,81,1062.387611358659,155.46926822568494,2518.4852463487923,12.469440673950368,4
4.815543371182433,47,99,757.4881102356081,34.612981561859485,1203.8858427956084,5.889276095926596,4
3.33435078409798,60,115,673.7879762351934,18.406096010829955,833.587696024495,4.290640887357658,4
3.0810726806623667,80,118,781.3800629664809,15.786848424717872,770.2681701655916,3.973277387600439,4
2.7169539514899053,71,119,638.7667429587123,13.512954076254696,679.2384878724763,3.6768156019995946,4
2.626828444388009,74,112,590.916854830828,11.510965254183125,656.7071110970023,3.3929856878537232,4
2.5175388380574506,76,106,589.7987953105717,10.6895493886333,629.3847095143626,3.269835341792802,4
2.62954244501237,77,119,648.0368598305423,11.735265572821282,657.3856112530925,3.425677468574257,4
2.385595506924852,80,114,594.7546401034258,10.410621193294109,596.398876731213,3.2272433903411195,4
2.073379767836588,76,112,497.7579709527308,7.7313884618992335,518.3449419591469,2.780549451353027,4
1.3975945173115485,53,101,238.12472646787955,4.035054499764565,349.39862932788714,2.009284818920008,4
1.1101714388366313,51,110,191.0076679313385,2.320549944753731,277.5428597091578,1.5238541275679869,4
1.028071575671473,60,109,186.14507032276356,1.9703246067618865,257.0178939178681,1.4038236783080815,0
0.7662899264867039,74,104,156.75105549314856,1.2768699158531962,191.572481621676,1.1300090635394398,0
0.556380284164547,68,105,112.7557398608265,0.5329093970495041,139.09507104113675,0.7300637924464076,0
0.5606405170780923,71,109,124.43987831577954,0.6142052960399731,140.16012926952305,0.7837168927648795,0
0.5254579082920077,77,121,114.29257273616312,0.5310849515533688,131.36447707300192,0.7288252245596823,0
0.469716780358764,79,122,101.36970392336504,0.3606618832490746,117.429195089691,0.6005554847605172,0
0.4871308675555552,70,122,104.57871122869732,0.4265503150593586,121.7827168888888,0.653129826134788,0
0.468127032806637,80,118,113.66044480069446,0.4127348418696284,117.03175820165926,0.6424777722804051,0
0.4438595268840972,91,124,108.7452283339844,0.3918552633012393,110.9648817210243,0.6260112672897079,0
0.4760603476454066,80,119,107.42678001021989,0.5119958535582717,119.01508691135166,0.7155451128770814,0
0.4462981964640966,81,132,101.12476781533827,0.4584579404081218,111.57454911602414,0.6771017903909355,0
0.4793616603341378,61,136,100.95271407111709,0.4923408178211958,119.84041508353444,0.7017019744237107,0
0.4803356255344547,75,116,104.2917833387528,0.4120093755530271,120.08390638361368,0.6418992306105269,0
0.4316712800870274,87,131,102.8008303368209,0.3178120588126115,107.91782002175684,0.5637825338674134,0
0.4787456822591618,79,120,111.34680407116568,0.4460365331645974,119.68642056479044,0.6678839378929787,0
0.5274478011327836,68,122,110.31141204651722,0.4852927410854357,131.86195028319588,0.6966804405789334,0
0.4654731163832011,83,119,100.22003864922576,0.3878113113600869,116.36827909580028,0.6228736491669409,0
0.5236139159895948,66,113,105.583758430327,0.4628423745974527,130.9034789973987,0.6803281106664271,0
0.585042747898099,66,110,121.70363509864372,0.5581993425573433,146.26068697452473,0.7471547497596723,0
0.8233815933004519,66,107,164.76378446726332,1.2231698880401782,205.84539832511297,1.1063282100758658,0
1.9248523586378568,71,122,438.8081918017806,6.075229956896043,481.2130896594642,2.464915073320709,4
2.758583209558178,79,118,710.980780588946,13.09409206207635,689.6458023895445,3.618731769587683,4
3.883162596755581,80,111,991.8817016694878,25.469611948962356,970.7906491888951,5.048315141679708,4
4.371660924887134,81,114,1044.9364101415526,29.517274533109894,1092.9152312217836,5.433102081411594,4
3.8670249246323047,85,116,921.784128818776,22.14114602162411,966.7562311580762,4.705504114319449,4
4.233220087100803,77,102,968.274441871056,28.50942094248714,1058.3050217752009,5.339582700316061,4
3.973624806952335,78,111,935.3465960539012,25.946554535613927,993.4062017380838,5.093797974768524,4
3.923815162981125,79,110,945.8149985717976,24.027207195292927,980.9537907452813,4.901761942294353,4
3.209451252942853,82,118,832.3294382413258,16.227424516684977,802.3628132357132,4.028421743962222,4
2.937046968601943,86,116,726.709816743198,13.734753227188072,734.2617421504858,3.7064439787021457,4
3.2548901250508546,80,106,735.6015948152849,18.157596389985905,813.7225312627137,4.261179580999116,4
2.9694830089772584,77,107,720.5150460758975,15.161826863491694,742.3707522443146,3.893922516370293,4
2.664068359724681,82,113,655.3222836280411,11.819342859726993,666.0170899311703,3.437929286122225,4
2.713359556066492,91,113,697.9677556702038,12.896298170413894,678.339889016623,3.591412008683436,4
2.9035424934609666,76,103,678.9974725506449,14.833952569004271,725.8856233652416,3.8517394974054224,4
2.9315831568574096,67,116,675.4150659268087,15.172665795804384,732.8957892143524,3.8961474310410336,4
2.5888508567427864,86,109,633.7504036729499,10.967708970411648,647.2127141856965,3.3118762436090696,4
2.954906446036836,78,112,662.2206608878876,14.148496564368813,738.726611509209,3.761646719480683,4
3.091098546336875,81,108,742.7274816474737,15.61132988012026,772.7746365842188,3.951896145589618,4
3.136509016493884,86,111,794.4775795379512,16.954038494248888,784.127254123471,4.117528687155457,4
3.357406316228799,74,96,763.192505194493,18.90961297128276,839.3515790571997,4.348636999732365,4
2.661409528370549,80,116,638.0526587362165,11.973105627814505,665.3523820926373,3.460671943118283,4
2.5223804008806474,88,110,639.5459993299597,10.92191860340726,630.5951002201618,3.3050082175816566,4
2.3439300533361376,86,111,576.5500202694109,8.880045690151364,585.9825133340344,2.9799924092031223,4
2.5520232319843426,79,120,609.2884320081837,12.085528491856644,638.0058079960857,3.476425741746317,4
2.666719112888351,76,112,597.7683695911742,12.322762274473796,666.6797782220877,3.5114115550941247,4
2.8267936347780696,74,109,628.9657975676079,13.72168259288754,706.6984086945174,3.7043428045647007,4
2.5099835680268257,63,110,545.7195695373866,12.199285605711667,627.4958920067064,3.4928721952225747,4
2.267247934397638,71,108,492.6943123140654,9.50909734284394,566.8119835994096,3.0836934533712497,4
1.9834268517227929,62,109,449.0796552167124,8.138211179912973,495.8567129306982,2.852910681291307,4
1.0959410852454623,70,132,235.0432181286217,3.2613384993645185,273.98527131136564,1.8059290990455812,4
0.810609780435768,74,110,177.50120288287508,1.1209151126293435,202.652445108942,1.059147725319017,0
0.6952755748734205,65,110,143.71670944915687,0.847918612578351,173.81889371835513,0.920880456575282,0
0.6525645404549928,73,112,153.58989414357455,0.6861793418701512,163.1411351137482,0.8285091747408561,0
0.6096606335634881,69,112,136.1164689056912,0.6871636914224574,152.41515839087202,0.8289710903868556,0
0.5667587133442833,78,129,127.97447601209127,0.6769931449987721,141.6896783360708,0.8228203754085303,0
0.6466255271769119,64,127,128.97387185324033,1.0728526724036822,161.65638179422797,1.0358897313679485,0
0.6089789206540732,72,120,128.21276327231087,0.9278195685472316,152.2447301635183,0.9633040584747226,0
0.5551667074722905,78,120,121.01425134713656,0.6262642125292058,138.7916768680726,0.7914619683544708,0
0.5544082797701528,86,127,118.71100573237828,0.662451121222348,138.6020699425382,0.8141467571085647,0
0.6155997092320616,75,116,128.54751352451106,0.707850711135949,153.8999273080154,0.8414501739756556,0
0.6680830247913192,59,118,137.35196025790657,0.85787479287265,167.0207561978298,0.9265233274239054,0
0.6043371463908039,77,120,139.7979508416184,0.7265563943140443,151.08428659770098,0.8524494660057216,0
0.7302282614999916,69,117,173.9193029978536,0.86991027660108,182.5570653749979,0.9327026988489864,0
0.7540128726445688,64,104,143.2477514699155,0.9305830473433956,188.5032181611422,0.9646816124363218,0
0.5925210305234375,76,109,129.39236506768503,0.6264340318098643,148.13025763085938,0.7914884512848008,0
0.6279430021230852,63,107,127.4123053631652,0.6632145112925865,156.9857505307713,0.8145667894422931,0
0.6264878253459255,73,121,147.92196394481016,0.7205564050261049,156.6219563364814,0.8488602374657054,0
0.7373177835906368,74,128,159.1296257879476,1.011983576210581,184.3294458976592,1.0061848029292282,0
0.7514433981763449,73,126,155.99394767658185,1.19915797769855,187.86084954408625,1.0951412033611418,0
0.9931972888706734,66,112,211.8806071296446,2.0135871652342834,248.29932221766836,1.4192237914207655,0
2.1874559207124893,70,110,486.81988411742935,8.414941854209838,546.8639801781223,2.9008519563413824,4
3.2683821618339257,79,114,786.8338591092286,17.970040593892243,817.0955404584814,4.239501365732036,4
3.363347380616405,79,123,861.7527925489499,17.87009119397281,840.8368451541013,4.2273179737514,4
3.4739575103787663,73,116,858.5621468300991,19.19602305032498,868.4893775946916,4.381328260530419,4
3.7168671301582257,69,108,861.057800263824,23.713510335156048,929.2167825395564,4.869653024969837,4
3.7480027589021776,83,121,962.7544387894792,23.808744933628628,937.0006897255444,4.879532273952998,4
3.511542122138376,89,118,929.25125416387,20.91745674894821,877.8855305345941,4.573569397879812,4
3.572299749781872,93,108,900.8682953564524,21.848675852400085,893.074937445468,4.674580819800922,4
3.708163063699193,80,115,900.2709779700951,21.89288093214096,927.0407659247984,4.679131436352142,4
3.629348975141384,80,121,899.0718196351579,21.94354886044849,907.337243785346,4.685004203698236,4
3.1175329552105286,84,119,807.8629611824545,16.360614572676536,779.3832388026321,4.0453239638935,4
