mean_fit_time,std_fit_time,mean_score_time,std_score_time,param_C,param_gamma,param_kernel,params,split0_test_score,split1_test_score,split2_test_score,split3_test_score,split4_test_score,split5_test_score,split6_test_score,split7_test_score,split8_test_score,split9_test_score,mean_test_score,std_test_score,rank_test_score
1.6372682571411132,0.11865945856481505,0.07231554985046387,0.014542532188790367,1,1,linear,"{'C': 1, 'gamma': 1, 'kernel': 'linear'}",0.9453781512605042,0.9411764705882353,0.9390756302521008,0.9485294117647058,0.9390756302521008,0.930672268907563,0.9464285714285714,0.9338235294117647,0.9432773109243697,0.9327731092436975,0.9400210084033613,0.005781129372192002,28
7.230474328994751,0.4386409402684203,0.551122784614563,0.056609893139181744,1,1,rbf,"{'C': 1, 'gamma': 1, 'kernel': 'rbf'}",0.9464285714285714,0.9558823529411765,0.9495798319327731,0.9684873949579832,0.9548319327731093,0.9474789915966386,0.9537815126050421,0.9600840336134454,0.9506302521008403,0.9506302521008403,0.953781512605042,0.006267409197553087,7
1.5574494123458862,0.16373771042396046,0.08101799488067626,0.023921186040524168,1,0.1,linear,"{'C': 1, 'gamma': 0.1, 'kernel': 'linear'}",0.9453781512605042,0.9411764705882353,0.9390756302521008,0.9485294117647058,0.9390756302521008,0.930672268907563,0.9464285714285714,0.9338235294117647,0.9432773109243697,0.9327731092436975,0.9400210084033613,0.005781129372192002,28
2.4512076139450074,0.41223709058476843,0.3733834266662598,0.1737302908113602,1,0.1,rbf,"{'C': 1, 'gamma': 0.1, 'kernel': 'rbf'}",0.9527310924369747,0.9537815126050421,0.9432773109243697,0.9621848739495799,0.944327731092437,0.944327731092437,0.9590336134453782,0.9474789915966386,0.9453781512605042,0.9369747899159664,0.9489495798319327,0.007400804602440578,21
1.7103858709335327,0.25757741145539176,0.07541649341583252,0.014245480328712316,1,0.01,linear,"{'C': 1, 'gamma': 0.01, 'kernel': 'linear'}",0.9453781512605042,0.9411764705882353,0.9390756302521008,0.9485294117647058,0.9390756302521008,0.930672268907563,0.9464285714285714,0.9338235294117647,0.9432773109243697,0.9327731092436975,0.9400210084033613,0.005781129372192002,28
2.9510666370391845,0.28858933230295525,0.4873095989227295,0.05466238113592159,1,0.01,rbf,"{'C': 1, 'gamma': 0.01, 'kernel': 'rbf'}",0.9149159663865546,0.9222689075630253,0.917016806722689,0.9369747899159664,0.9149159663865546,0.9128151260504201,0.9191176470588235,0.9180672268907563,0.9096638655462185,0.9128151260504201,0.9178571428571429,0.007228844762220705,35
1.6265653610229491,0.16362409248274384,0.0843184232711792,0.02263719167277713,1,0.001,linear,"{'C': 1, 'gamma': 0.001, 'kernel': 'linear'}",0.9453781512605042,0.9411764705882353,0.9390756302521008,0.9485294117647058,0.9390756302521008,0.930672268907563,0.9464285714285714,0.9338235294117647,0.9432773109243697,0.9327731092436975,0.9400210084033613,0.005781129372192002,28
5.880120325088501,0.22300010215369206,0.737164568901062,0.10833750241082787,1,0.001,rbf,"{'C': 1, 'gamma': 0.001, 'kernel': 'rbf'}",0.875,0.8771008403361344,0.8665966386554622,0.8855042016806722,0.8560924369747899,0.8665966386554622,0.8634453781512605,0.8707983193277311,0.8665966386554622,0.8718487394957983,0.8699579831932773,0.007687468261988222,38
1.4147178888320924,0.2063294959015696,0.06941547393798828,0.011946389695924,1,0.0001,linear,"{'C': 1, 'gamma': 0.0001, 'kernel': 'linear'}",0.9453781512605042,0.9411764705882353,0.9390756302521008,0.9485294117647058,0.9390756302521008,0.930672268907563,0.9464285714285714,0.9338235294117647,0.9432773109243697,0.9327731092436975,0.9400210084033613,0.005781129372192002,28
10.585183000564575,0.5069636453185355,1.1631153106689454,0.19295150402782738,1,0.0001,rbf,"{'C': 1, 'gamma': 0.0001, 'kernel': 'rbf'}",0.7510504201680672,0.7678571428571429,0.7510504201680672,0.7573529411764706,0.7384453781512605,0.7426470588235294,0.7563025210084033,0.7584033613445378,0.7426470588235294,0.7521008403361344,0.7517857142857143,0.0083645374166464,40
2.6876566648483275,0.25089336627188785,0.06701595783233642,0.01201036878399104,10,1,linear,"{'C': 10, 'gamma': 1, 'kernel': 'linear'}",0.9516806722689075,0.9516806722689075,0.9422268907563025,0.957983193277311,0.9474789915966386,0.9369747899159664,0.9569327731092437,0.9411764705882353,0.9474789915966386,0.9411764705882353,0.9474789915966386,0.006725970837639555,22
7.058283972740173,0.4001556597848331,0.5531238555908203,0.04178753668735688,10,1,rbf,"{'C': 10, 'gamma': 1, 'kernel': 'rbf'}",0.9527310924369747,0.9548319327731093,0.944327731092437,0.9663865546218487,0.9516806722689075,0.9506302521008403,0.9569327731092437,0.9611344537815126,0.9506302521008403,0.9548319327731093,0.9544117647058823,0.005795426144594023,6
2.8449382305145265,0.3406937771794507,0.07221627235412598,0.019640799107803867,10,0.1,linear,"{'C': 10, 'gamma': 0.1, 'kernel': 'linear'}",0.9516806722689075,0.9516806722689075,0.9422268907563025,0.957983193277311,0.9474789915966386,0.9369747899159664,0.9569327731092437,0.9411764705882353,0.9474789915966386,0.9411764705882353,0.9474789915966386,0.006725970837639555,22
1.5937575817108154,0.1828089487172213,0.20804595947265625,0.023256385331368624,10,0.1,rbf,"{'C': 10, 'gamma': 0.1, 'kernel': 'rbf'}",0.9663865546218487,0.9653361344537815,0.9537815126050421,0.9747899159663865,0.9558823529411765,0.9569327731092437,0.9642857142857143,0.9653361344537815,0.9527310924369747,0.9495798319327731,0.9605042016806724,0.007474977678427395,2
2.3228214740753175,0.14742073020281835,0.06311464309692383,0.01019577792480914,10,0.01,linear,"{'C': 10, 'gamma': 0.01, 'kernel': 'linear'}",0.9516806722689075,0.9516806722689075,0.9422268907563025,0.957983193277311,0.9474789915966386,0.9369747899159664,0.9569327731092437,0.9411764705882353,0.9474789915966386,0.9411764705882353,0.9474789915966386,0.006725970837639555,22
1.8226089954376221,0.2868967218342187,0.2783626079559326,0.01611610097261608,10,0.01,rbf,"{'C': 10, 'gamma': 0.01, 'kernel': 'rbf'}",0.9474789915966386,0.9495798319327731,0.9380252100840336,0.9537815126050421,0.9422268907563025,0.9359243697478992,0.9432773109243697,0.9432773109243697,0.9390756302521008,0.9380252100840336,0.9430672268907563,0.005433830737973769,27
2.2455036640167236,0.25919040243816716,0.06881592273712159,0.022807479546545037,10,0.001,linear,"{'C': 10, 'gamma': 0.001, 'kernel': 'linear'}",0.9516806722689075,0.9516806722689075,0.9422268907563025,0.957983193277311,0.9474789915966386,0.9369747899159664,0.9569327731092437,0.9411764705882353,0.9474789915966386,0.9411764705882353,0.9474789915966386,0.006725970837639555,22
2.694706106185913,0.26346084850519247,0.4693042755126953,0.03301689268074147,10,0.001,rbf,"{'C': 10, 'gamma': 0.001, 'kernel': 'rbf'}",0.9128151260504201,0.9180672268907563,0.9191176470588235,0.9380252100840336,0.9117647058823529,0.907563025210084,0.9180672268907563,0.9243697478991597,0.9128151260504201,0.9128151260504201,0.9175420168067226,0.00818047372791494,36
2.5023611545562745,0.269760445447255,0.07951726913452148,0.025624098450532613,10,0.0001,linear,"{'C': 10, 'gamma': 0.0001, 'kernel': 'linear'}",0.9516806722689075,0.9516806722689075,0.9422268907563025,0.957983193277311,0.9474789915966386,0.9369747899159664,0.9569327731092437,0.9411764705882353,0.9474789915966386,0.9411764705882353,0.9474789915966386,0.006725970837639555,22
4.552222752571106,0.4989324328288233,0.6838521718978882,0.020351479473585593,10,0.0001,rbf,"{'C': 10, 'gamma': 0.0001, 'kernel': 'rbf'}",0.8739495798319328,0.8760504201680672,0.8665966386554622,0.8855042016806722,0.8560924369747899,0.8676470588235294,0.8634453781512605,0.8697478991596639,0.8665966386554622,0.8718487394957983,0.8697478991596638,0.007486777176977079,39
6.768519401550293,0.6975870606178579,0.06221320629119873,0.013815097982085857,100,1,linear,"{'C': 100, 'gamma': 1, 'kernel': 'linear'}",0.9464285714285714,0.9527310924369747,0.9474789915966386,0.9611344537815126,0.9506302521008403,0.9453781512605042,0.9558823529411765,0.9464285714285714,0.9474789915966386,0.9464285714285714,0.9499999999999998,0.0048864299788290155,16
5.9418336868286135,0.8143259955213433,0.4998119115829468,0.07005150576625606,100,1,rbf,"{'C': 100, 'gamma': 1, 'kernel': 'rbf'}",0.9527310924369747,0.9506302521008403,0.9432773109243697,0.9642857142857143,0.9485294117647058,0.9495798319327731,0.9569327731092437,0.9590336134453782,0.9506302521008403,0.9548319327731093,0.9530462184873949,0.005657660928359366,9
6.65089213848114,0.48853909034141346,0.05961289405822754,0.008937532839266914,100,0.1,linear,"{'C': 100, 'gamma': 0.1, 'kernel': 'linear'}",0.9464285714285714,0.9527310924369747,0.9474789915966386,0.9611344537815126,0.9506302521008403,0.9453781512605042,0.9558823529411765,0.9464285714285714,0.9474789915966386,0.9464285714285714,0.9499999999999998,0.0048864299788290155,16
1.4404238700866698,0.14274428536123177,0.2121474027633667,0.03188104403360135,100,0.1,rbf,"{'C': 100, 'gamma': 0.1, 'kernel': 'rbf'}",0.9632352941176471,0.9621848739495799,0.9495798319327731,0.9747899159663865,0.9569327731092437,0.9611344537815126,0.9611344537815126,0.9737394957983193,0.9611344537815126,0.9590336134453782,0.9622899159663867,0.007022119711495066,1
7.308139228820801,0.29896921997717624,0.06621479988098145,0.004621810147609098,100,0.01,linear,"{'C': 100, 'gamma': 0.01, 'kernel': 'linear'}",0.9464285714285714,0.9527310924369747,0.9474789915966386,0.9611344537815126,0.9506302521008403,0.9453781512605042,0.9558823529411765,0.9464285714285714,0.9474789915966386,0.9464285714285714,0.9499999999999998,0.0048864299788290155,16
1.4627285242080688,0.03832326515476977,0.2432546377182007,0.017044426462146465,100,0.01,rbf,"{'C': 100, 'gamma': 0.01, 'kernel': 'rbf'}",0.9569327731092437,0.9611344537815126,0.9516806722689075,0.9663865546218487,0.9527310924369747,0.9527310924369747,0.9684873949579832,0.9590336134453782,0.9506302521008403,0.9474789915966386,0.9567226890756302,0.006606800501477498,4
8.301462173461914,0.7682412120532623,0.06831486225128174,0.008428757205329016,100,0.001,linear,"{'C': 100, 'gamma': 0.001, 'kernel': 'linear'}",0.9464285714285714,0.9527310924369747,0.9474789915966386,0.9611344537815126,0.9506302521008403,0.9453781512605042,0.9558823529411765,0.9464285714285714,0.9474789915966386,0.9464285714285714,0.9499999999999998,0.0048864299788290155,16
2.1153753757476808,0.38105086960351864,0.4150924921035767,0.06768904337437187,100,0.001,rbf,"{'C': 100, 'gamma': 0.001, 'kernel': 'rbf'}",0.9432773109243697,0.9411764705882353,0.9327731092436975,0.9453781512605042,0.9338235294117647,0.9275210084033614,0.9369747899159664,0.9390756302521008,0.9401260504201681,0.9327731092436975,0.9372899159663867,0.00525315115548317,33
8.551918005943298,0.6180133347633303,0.07751805782318115,0.018611564797578296,100,0.0001,linear,"{'C': 100, 'gamma': 0.0001, 'kernel': 'linear'}",0.9464285714285714,0.9527310924369747,0.9474789915966386,0.9611344537815126,0.9506302521008403,0.9453781512605042,0.9558823529411765,0.9464285714285714,0.9474789915966386,0.9464285714285714,0.9499999999999998,0.0048864299788290155,16
2.983169364929199,0.44079628409941246,0.6066362142562867,0.08489073848222023,100,0.0001,rbf,"{'C': 100, 'gamma': 0.0001, 'kernel': 'rbf'}",0.9138655462184874,0.9159663865546218,0.9201680672268907,0.9380252100840336,0.9107142857142857,0.9044117647058824,0.9180672268907563,0.9222689075630253,0.9107142857142857,0.9138655462184874,0.9168067226890756,0.00859549266616756,37
43.874355626106265,2.5014174978221635,0.058112931251525876,0.002774097201691604,1000,1,linear,"{'C': 1000, 'gamma': 1, 'kernel': 'linear'}",0.9474789915966386,0.9537815126050421,0.9432773109243697,0.967436974789916,0.9495798319327731,0.9464285714285714,0.9569327731092437,0.9422268907563025,0.9474789915966386,0.9485294117647058,0.9503151260504202,0.007062855241182471,11
5.119249153137207,0.26221794998698594,0.6034341335296631,0.017628287995922996,1000,1,rbf,"{'C': 1000, 'gamma': 1, 'kernel': 'rbf'}",0.9537815126050421,0.9506302521008403,0.9422268907563025,0.9642857142857143,0.9485294117647058,0.9495798319327731,0.957983193277311,0.9590336134453782,0.9506302521008403,0.9548319327731093,0.9531512605042016,0.005927199991456278,8
43.027953481674196,2.5587926633411517,0.06161351203918457,0.006592105944224978,1000,0.1,linear,"{'C': 1000, 'gamma': 0.1, 'kernel': 'linear'}",0.9474789915966386,0.9537815126050421,0.9432773109243697,0.967436974789916,0.9495798319327731,0.9464285714285714,0.9569327731092437,0.9422268907563025,0.9474789915966386,0.9485294117647058,0.9503151260504202,0.007062855241182471,11
1.4447237730026246,0.12902903671097565,0.19404325485229493,0.017508034340665987,1000,0.1,rbf,"{'C': 1000, 'gamma': 0.1, 'kernel': 'rbf'}",0.9474789915966386,0.9590336134453782,0.9464285714285714,0.9653361344537815,0.9527310924369747,0.9537815126050421,0.9548319327731093,0.9684873949579832,0.9527310924369747,0.9590336134453782,0.9559873949579831,0.0067333489540073056,5
45.749664831161496,1.849360593035777,0.06101360321044922,0.006798252749663138,1000,0.01,linear,"{'C': 1000, 'gamma': 0.01, 'kernel': 'linear'}",0.9474789915966386,0.9537815126050421,0.9432773109243697,0.967436974789916,0.9495798319327731,0.9464285714285714,0.9569327731092437,0.9422268907563025,0.9474789915966386,0.9485294117647058,0.9503151260504202,0.007062855241182471,11
1.9204312801361083,0.2042381815504566,0.18223941326141357,0.018981798966027648,1000,0.01,rbf,"{'C': 1000, 'gamma': 0.01, 'kernel': 'rbf'}",0.9695378151260504,0.9600840336134454,0.9569327731092437,0.9695378151260504,0.9548319327731093,0.9590336134453782,0.967436974789916,0.9642857142857143,0.9537815126050421,0.9474789915966386,0.9602941176470587,0.006980356187326109,3
44.751542115211485,2.096221785187554,0.058912920951843264,0.0061407309684562835,1000,0.001,linear,"{'C': 1000, 'gamma': 0.001, 'kernel': 'linear'}",0.9474789915966386,0.9537815126050421,0.9432773109243697,0.967436974789916,0.9495798319327731,0.9464285714285714,0.9569327731092437,0.9422268907563025,0.9474789915966386,0.9485294117647058,0.9503151260504202,0.007062855241182471,11
1.3548038005828857,0.09893356067764736,0.2710611343383789,0.03182252763344638,1000,0.001,rbf,"{'C': 1000, 'gamma': 0.001, 'kernel': 'rbf'}",0.9590336134453782,0.9548319327731093,0.9464285714285714,0.9537815126050421,0.9474789915966386,0.944327731092437,0.9537815126050421,0.9516806722689075,0.9506302521008403,0.9453781512605042,0.9507352941176471,0.004516806722689105,10
42.79911124706268,1.8630399002362033,0.051712632179260254,0.007072186769191272,1000,0.0001,linear,"{'C': 1000, 'gamma': 0.0001, 'kernel': 'linear'}",0.9474789915966386,0.9537815126050421,0.9432773109243697,0.967436974789916,0.9495798319327731,0.9464285714285714,0.9569327731092437,0.9422268907563025,0.9474789915966386,0.9485294117647058,0.9503151260504202,0.007062855241182471,11
1.395513105392456,0.10172437092312207,0.34457712173461913,0.008419030540036789,1000,0.0001,rbf,"{'C': 1000, 'gamma': 0.0001, 'kernel': 'rbf'}",0.9317226890756303,0.9359243697478992,0.9275210084033614,0.9432773109243697,0.9338235294117647,0.9243697478991597,0.9327731092436975,0.9348739495798319,0.9390756302521008,0.9254201680672269,0.9328781512605042,0.005645947332091025,34
