8.06;2.40;2.40;11.33;11.11;5.34
1.63;2.40;-4.03;9.69;7.08;0.54
2.40;1.52;0.76;0.87;0.65;3.70
1.63;26.57;-0.00;-2.40;-7.41;2.18
2.40;1.52;0.76;-2.40;-9.91;1.31
2.40;2.40;3.16;-31.36;-0.98;2.18
4.79;-2.50;2.40;14.48;3.81;1.31
0.76;4.79;-1.63;-4.79;12.74;1.31
-3.27;-0.00;-1.63;-3.16;4.68;16.66
-4.90;-3.27;-1.63;-1.63;4.68;18.30
-3.27;9.58;-2.50;-10.45;3.81;-0.33
-5.66;0.76;-0.87;-4.79;2.18;-3.48
-2.40;-0.87;-1.63;1.63;3.81;-0.33
-7.30;-2.50;-0.87;4.90;2.18;1.31
-1.63;1.52;-1.63;2.40;3.81;1.31
1.63;2.40;-0.87;34.63;5.44;1.31
1.63;7.19;-1.63;9.69;14.27;-1.09
2.40;-4.90;-2.50;3.27;17.53;1.31
0.76;-8.93;-0.00;0.87;17.53;1.31
2.40;-21.02;-2.50;-2.40;13.50;32.78
4.79;2.40;-0.00;0.87;13.50;0.54
3.16;3.16;-1.63;1.63;-9.91;0.54
3.16;11.22;2.40;-3.16;-30.06;-1.85
0.76;30.60;0.76;2.40;-30.06;-2.72
-2.40;-0.87;2.40;4.90;-29.19;2.94
-0.00;-2.50;3.16;-0.76;-26.79;0.54
1.63;-3.27;2.40;0.87;-12.31;1.31
-0.00;-4.03;-1.63;0.87;-3.38;-1.09
-2.40;4.79;-1.63;-2.40;1.42;-3.48
-4.90;0.76;0.76;-28.97;14.27;-2.72
-6.43;-0.00;-1.63;-0.76;22.32;-3.48
-2.40;-0.00;-0.00;-4.03;15.90;3.70
9.69;4.03;-1.63;-4.03;7.08;10.24
2.40;-5.66;-4.90;-3.16;-4.25;1.31
-1.63;-0.87;-1.63;-1.63;17.53;-0.33
-1.63;-25.81;-0.87;-2.40;1.42;-2.72
1.63;16.88;-4.03;7.30;-13.07;-5.88
-0.87;-21.02;-0.87;9.69;-8.28;-5.88
-4.90;-0.00;-0.00;19.38;-5.88;-7.51
-8.06;-0.00;9.58;-1.63;-7.41;-0.33
-8.06;-0.00;-1.63;-3.16;-3.38;-7.51
-1.63;-10.56;-0.00;9.69;4.68;-2.72
2.40;1.52;-1.63;-12.09;5.44;0.54
4.79;-20.15;-1.63;-3.16;6.21;1.31
7.19;4.03;0.76;0.87;6.21;-1.85
17.75;4.79;-1.63;1.63;3.81;35.17
20.91;-0.00;3.92;10.45;-0.98;19.06
15.25;1.52;18.51;1.63;-1.85;26.24
2.40;0.76;1.52;5.66;-1.85;1.31
-10.45;-4.03;-1.63;-3.16;-0.22;15.79
-9.69;-8.06;2.40;5.66;3.05;-1.85
-11.33;-0.00;-1.63;-26.57;3.05;-5.88
-6.43;-15.35;-2.50;-0.76;3.05;-4.36
-0.00;-25.81;-0.87;-4.03;-0.22;-1.09
-0.87;-21.02;-1.63;0.87;5.44;-3.48
-1.63;28.10;0.76;9.69;3.81;1.31
-0.00;18.51;-1.63;9.69;14.27;-3.48
1.63;4.79;0.76;8.93;16.77;-1.09
-1.63;-32.23;-1.63;4.90;9.47;0.54
2.40;-6.53;3.16;-2.40;3.81;2.18
-4.90;3.16;2.40;-5.66;-0.98;-0.33
2.40;0.76;0.76;-4.79;28.86;-0.33
1.63;4.79;-0.00;-4.79;7.84;2.18
4.03;22.54;-1.63;1.63;40.08;-21.24
2.40;4.03;-3.27;-0.76;5.44;1.31
4.03;2.40;-0.00;-3.16;-0.98;6.21
2.40;-8.93;-0.87;-1.63;-9.91;1.31
2.40;-6.53;-1.63;-1.63;-17.10;1.31
-4.90;-2.50;-0.87;-0.76;-24.39;1.31
-3.27;-2.50;-1.63;-4.03;-34.85;-1.09
-5.66;-0.00;0.76;-4.03;-34.09;1.31
-4.90;-2.50;-1.63;-4.79;-32.45;-3.48
2.40;-2.50;-2.50;-3.16;-22.00;-20.47
2.40;5.55;-2.50;-4.79;-6.64;-2.72
4.03;4.03;-2.50;-29.84;8.71;-4.36
2.40;-5.66;-2.50;15.35;19.93;-7.51
4.03;2.40;-1.63;-1.63;15.90;-7.51
1.63;0.76;-1.63;5.66;7.84;-4.36
-2.40;-2.50;-1.63;-0.76;3.81;1.31
1.63;28.10;-2.50;1.63;3.81;-1.09
1.63;1.52;0.76;29.84;3.81;-1.09
-0.00;-3.27;3.16;-25.81;5.44;1.31
2.40;0.76;1.52;9.69;14.27;3.70
2.40;4.79;-1.63;8.93;11.87;6.97
1.63;-25.81;3.92;8.93;4.68;-8.39
-0.87;2.40;15.25;2.40;2.18;9.37
1.63;-5.66;2.40;0.87;-5.01;2.18
1.63;7.19;2.40;-3.16;-0.98;1.31
-1.63;-6.53;-1.63;-5.66;3.81;1.31
-1.63;-2.50;2.40;-10.45;3.81;-0.33
-2.40;-2.50;17.64;-3.16;4.68;0.54
-2.40;3.16;-1.63;-3.16;32.89;-0.33
1.63;-2.50;-1.63;-1.63;7.84;1.31
13.72;0.76;2.40;0.87;5.44;9.37
9.69;-0.00;-1.63;-0.76;-3.38;-0.33
-0.00;-4.03;-4.03;-3.16;-16.33;-0.33
-0.87;-3.27;-1.63;-2.40;-9.91;-7.51
-6.43;3.16;-2.50;-2.40;-12.31;-11.54
-12.09;1.52;-1.63;-5.66;-10.67;-9.15
-4.90;4.79;-1.63;-0.76;-14.70;14.27
-3.27;3.16;-0.00;5.66;-14.70;16.66
2.40;4.79;0.76;0.87;-10.67;-19.60
12.09;3.16;-0.87;-0.76;-9.04;-3.48
4.79;-0.00;-0.87;-20.91;14.27;3.70
11.22;4.79;-0.00;8.06;4.68;15.03
28.21;2.40;-0.00;9.69;15.14;29.51
15.25;9.58;-0.00;9.69;16.77;6.97
-0.00;-0.00;-1.63;8.06;18.30;1.31
-5.66;5.55;5.55;-2.40;19.93;-5.88
-10.45;1.52;9.58;-7.19;18.30;-12.41
-17.75;-4.03;-0.87;-8.06;6.21;-10.78
-12.96;-4.90;-13.72;-10.45;3.05;-16.44
-9.69;0.76;-1.63;-12.09;-8.28;-2.72
-6.43;16.88;-2.50;-10.45;-11.43;1.31
2.40;3.16;-0.00;-3.16;-22.76;2.18
2.40;-0.00;-1.63;0.87;-24.39;-0.33
-0.00;2.40;-1.63;-1.63;-26.03;-1.85
0.76;10.45;-15.35;-3.16;-19.49;-7.51
-1.63;-3.27;-1.63;30.60;-10.67;-6.75
2.40;-24.18;-1.63;15.35;20.80;-4.36
-0.87;-3.27;0.76;15.35;16.77;-14.81
1.63;3.16;2.40;4.90;5.44;0.54
2.40;-17.75;-0.00;-1.63;12.74;25.48
1.63;3.16;3.92;-8.82;16.77;-0.33
3.16;-0.00;2.40;-12.85;-11.43;-0.33
5.66;23.30;0.76;-33.00;-14.70;2.18
2.40;-3.27;5.55;-2.40;-19.49;1.31
-3.27;1.52;-0.00;-23.30;-20.36;4.57
-4.90;4.79;-2.50;-2.40;-17.10;10.24
-3.27;1.52;-1.63;-4.79;-13.07;3.70
-1.63;-5.66;-4.03;2.40;-17.10;4.57
1.63;-21.02;-2.50;1.63;6.21;10.24
2.40;0.76;-20.15;5.66;19.17;-9.15
2.40;-2.50;-1.63;4.03;16.77;2.94
2.40;-0.00;-1.63;9.69;22.32;1.31
2.40;-2.50;-3.27;0.87;28.86;-2.72
0.76;23.30;-0.87;-8.06;17.53;1.31
2.40;-0.87;2.40;9.69;19.17;-0.33
2.40;-0.00;-0.87;7.30;17.53;-6.75
-2.40;4.79;3.92;8.06;9.47;-4.36
0.76;2.40;-2.50;12.09;7.08;0.54
-0.00;11.98;3.92;16.12;-0.22;1.31
2.40;4.79;3.92;2.40;3.81;-1.85
3.16;-0.00;3.16;-1.63;-16.33;-0.33
1.63;-8.93;-0.87;-37.90;-26.03;-4.36
1.63;-0.00;-25.81;-16.88;-34.09;-13.94
2.40;-3.27;3.16;-16.12;-33.21;-2.72
2.40;18.51;-0.87;-16.12;-23.52;1.31
2.40;0.76;2.40;-12.09;-17.10;0.54
-0.87;-33.11;0.76;-11.22;-0.98;-10.78
-1.63;-2.50;-1.63;0.87;4.68;-1.09
-3.27;-4.03;-1.63;-1.63;6.21;-1.85
-4.90;15.25;-1.63;-1.63;3.81;0.54
-3.27;-3.27;-2.50;5.66;7.08;1.31
0.76;30.60;-1.63;2.40;3.81;-2.72
0.76;-23.41;-3.27;7.30;-0.22;-0.33
-1.63;22.54;28.10;2.40;-5.01;-2.72
-0.00;2.40;-2.50;7.30;1.42;-2.72
-0.00;-21.78;19.28;5.66;1.42;1.31
-0.87;15.25;-0.87;1.63;3.81;3.70
-2.40;-3.27;-11.33;9.69;6.21;-0.33
1.63;4.79;1.52;-18.51;7.84;2.18
7.19;-0.00;-0.00;7.30;8.71;34.30
2.40;1.52;3.16;-1.63;9.47;12.63
14.48;-6.53;0.76;4.90;24.83;3.70
1.63;2.40;3.92;2.40;6.21;-0.33
-4.90;-0.00;2.40;4.03;3.81;-7.51
-11.33;11.98;-0.00;-0.76;3.81;-10.78
-6.43;-0.87;-0.87;-1.63;-0.22;0.54
-1.63;-2.50;-4.03;-2.40;-3.38;4.57
2.40;2.40;-3.27;-4.03;3.05;3.70
-4.90;-3.27;-2.50;-4.79;-8.28;2.18
0.76;-0.00;-1.63;-8.06;-8.28;15.79
10.45;26.57;-0.87;-5.66;9.47;15.79
2.40;4.79;-1.63;-4.79;1.42;6.21
20.15;3.16;0.76;-1.63;24.83;11.76
8.06;22.54;3.16;5.66;34.41;1.31
2.40;-0.87;-8.93;7.30;25.59;-3.48
-2.40;20.04;-1.63;4.90;16.77;-2.72
4.03;0.76;-1.63;1.63;3.81;11.76
-2.40;1.52;0.76;-3.16;-5.01;-1.85
-1.63;-0.00;2.40;0.00;-11.43;-2.72
-0.00;-2.50;2.40;-8.82;-20.36;-1.09
-4.90;4.79;0.76;-0.76;-26.79;-7.51
-1.63;-3.27;-0.87;-1.63;-29.19;-10.78
-3.27;3.16;-0.00;-20.15;-25.16;-9.15
-0.00;-2.50;-0.00;-3.16;-19.49;-3.48
-10.45;4.79;-2.50;-2.40;-17.97;-4.36
-4.90;4.03;-1.63;-2.40;-6.64;1.31
0.76;-2.50;-1.63;11.33;-5.01;1.31
1.63;8.82;-1.63;0.87;-0.22;-2.72
-0.87;-0.00;-4.03;-8.06;29.62;2.94
-2.40;-2.50;-2.50;-6.43;15.14;1.31
-0.00;-3.27;-4.03;-4.03;21.56;26.24
2.40;4.03;-1.63;-5.66;27.22;2.18
2.40;-0.00;-2.50;0.87;20.80;1.31
1.63;-5.66;-0.87;0.87;7.84;1.31
2.40;7.19;-9.69;9.69;2.18;-29.29
3.16;0.76;-1.63;4.03;-13.07;1.31
9.69;3.16;2.40;7.30;-18.73;1.31
11.22;6.43;-0.00;1.63;-11.43;-2.72
2.40;1.52;0.76;5.66;-17.97;-2.72
1.63;4.79;0.76;9.69;-10.67;1.31
-2.40;35.39;-0.00;10.45;3.81;0.54
-8.93;4.03;0.76;-11.22;15.14;5.34
-4.03;-9.69;-1.63;-11.22;17.53;-2.72
-5.66;-32.23;-1.63;-3.16;8.71;3.70
-4.90;-3.27;-1.63;-10.45;3.81;-0.33
-4.03;0.76;1.52;-16.12;-0.98;0.54
0.76;-0.00;2.40;-5.66;-0.98;11.76
-0.00;1.52;-3.27;-2.40;-9.04;-1.09
-3.27;12.85;-2.50;-31.36;-6.64;4.57
-0.00;-0.00;-2.50;-1.63;-0.22;-19.60
3.16;19.28;-1.63;-26.57;-4.25;2.94
1.63;-29.08;-1.63;9.69;-10.67;1.31
4.79;-0.87;-2.50;-0.76;-5.01;-1.85
-0.00;4.03;-7.30;-3.16;3.81;-13.18
2.40;0.76;1.52;-3.16;3.81;-1.09
0.76;-27.44;-1.63;1.63;3.81;-7.51
-0.87;-8.06;-1.63;1.63;-0.22;-0.33
-0.00;0.76;-0.87;-2.40;-11.43;-2.72
1.63;27.33;0.76;-0.76;3.81;-2.72
-0.87;4.79;0.76;2.40;-8.28;-11.54
3.16;1.52;3.16;5.66;-3.38;3.70
16.12;-0.00;0.76;10.45;-0.22;7.73
4.03;-4.90;3.92;0.87;27.22;3.70
-0.00;-6.53;0.76;-0.76;-0.98;-12.41
1.63;-0.00;0.76;4.90;-0.98;1.31
-3.27;-28.21;-1.63;9.69;-21.13;5.34
-5.66;2.40;0.76;9.69;0.65;1.31
-1.63;-20.15;-0.00;0.87;4.68;1.31
-6.43;20.91;-1.63;-3.16;3.81;0.54
-5.66;-2.50;-1.63;-0.76;4.68;-2.72
-8.06;2.40;-0.87;-11.22;-0.22;-3.48
-6.43;-31.47;-2.50;-4.79;2.18;-6.75
-4.90;0.76;-2.50;-3.16;3.81;-6.75
-5.66;-0.87;-3.27;-4.79;-0.22;-3.48
2.40;2.40;-4.03;2.40;-1.85;0.54
-0.00;-2.50;-0.87;8.93;-0.22;1.31
3.16;-0.87;-0.87;7.30;3.81;9.37
7.19;15.25;-0.00;-1.63;4.68;3.70
9.69;0.76;3.16;33.00;8.71;8.60
16.12;-22.65;0.76;9.69;25.59;2.94
12.09;0.76;-0.00;9.69;19.17;-4.36
2.40;4.03;-3.27;5.66;20.80;15.79
2.40;-4.03;-1.63;-2.40;17.53;6.97
2.40;4.03;2.40;0.87;3.81;1.31
2.40;-0.00;-1.63;9.69;-22.00;-1.85
-6.43;4.03;-1.63;-2.40;-27.55;1.31
-1.63;3.16;-1.63;-2.40;-21.13;-24.50
-6.43;-3.27;-0.87;2.40;-20.36;0.54
-8.06;8.82;-4.03;-4.03;-10.67;-2.72
-6.43;1.52;-1.63;-7.19;-39.64;-31.69
-0.00;-2.50;-1.63;-8.82;-22.00;-4.36
-5.66;-3.27;-4.03;-7.19;5.44;-0.33
-6.43;-19.38;-1.63;-12.09;12.74;0.54
1.63;24.94;-1.63;-6.43;23.96;2.94
-0.00;11.98;10.45;-2.40;21.56;-1.09
2.40;4.79;-1.63;-1.63;19.17;-0.33
-2.40;20.04;-1.63;-0.76;5.44;1.31
-0.00;2.40;-0.00;2.40;-3.38;-4.36
2.40;3.16;0.76;9.69;-19.49;0.54
-0.00;2.40;3.16;5.66;-22.76;19.82
4.03;4.03;3.92;0.87;-16.33;-0.33
3.16;4.03;3.16;-0.76;-13.94;23.85
-0.00;2.40;3.92;-2.40;-5.01;-22.87
-1.63;4.79;3.92;-0.76;3.81;1.31
-6.43;-2.50;-16.12;-1.63;9.47;1.31
-2.40;-26.68;-1.63;-2.40;6.21;2.94
-5.66;22.54;-0.87;-1.63;7.84;2.94
-0.87;-0.87;-1.63;-5.66;17.53;2.18
-4.90;-3.27;-1.63;-0.76;3.81;5.34
2.40;-25.81;-1.63;0.87;11.11;-1.85
-6.43;16.88;-0.00;4.03;12.74;2.94
2.40;-2.50;0.76;0.87;18.30;-31.69
1.63;-4.03;-5.66;-7.19;23.96;-1.85
-0.87;0.76;3.16;8.06;21.56;-5.88
-1.63;-23.41;-1.63;3.27;-13.94;-2.72
-3.27;4.03;-0.87;9.69;8.71;-1.85
-3.27;3.16;3.16;13.72;2.18;-2.72
4.03;3.16;3.92;4.90;-14.70;1.31
2.40;2.40;-0.87;-4.79;-21.13;2.18
8.06;3.16;1.52;-16.12;-25.16;1.31
2.40;-16.99;1.52;-16.88;-23.52;1.31
2.40;-0.00;2.40;-16.12;-26.03;-16.44
19.28;-18.62;-1.63;-12.85;-21.13;1.31
8.06;0.76;-1.63;-13.72;-22.00;0.54
-2.40;1.52;2.40;-4.03;-17.10;1.31
-10.45;-18.62;-4.03;-7.19;-8.28;-6.75
-14.48;-5.66;-2.50;-2.40;-0.98;-9.15
-12.96;4.79;-0.00;2.40;3.05;-4.36
-12.96;-2.50;-4.03;8.06;11.87;-2.72
-10.45;-4.03;-1.63;2.40;14.27;-4.36
-2.40;-29.08;-1.63;0.00;11.87;-1.09
1.63;3.16;-0.87;4.03;7.84;-1.09
-0.00;-3.27;-0.87;2.40;3.81;-1.09
2.40;10.45;-1.63;4.03;-0.98;2.94
14.48;-8.93;0.76;-0.76;-6.64;1.31
4.03;4.03;0.76;4.03;3.81;6.21
8.06;0.76;2.40;32.23;5.44;10.24
10.45;2.40;0.76;-7.19;3.81;8.60
7.19;30.60;2.40;5.66;-9.91;0.54
1.63;4.79;3.16;2.40;8.71;1.31
4.03;28.10;5.55;-3.16;7.84;4.57
4.79;2.40;0.76;7.30;7.08;2.18
4.03;-0.00;3.16;2.40;9.47;2.18
-0.87;4.79;0.76;-0.76;3.81;-1.85
-4.90;4.79;0.76;7.30;-3.38;-3.48
-3.27;-6.53;-0.00;-2.40;-22.76;-7.51
-2.40;24.94;15.25;-0.76;-3.38;-34.96
-4.90;-1.63;-2.50;12.09;-17.97;-3.48
-4.90;0.76;-1.63;1.63;-7.41;-3.48
-2.40;18.51;-1.63;7.30;-3.38;-0.33
-6.43;-0.87;-0.87;-1.63;-8.28;-3.48
-6.43;-2.50;-0.00;0.00;-6.64;-2.72
-0.00;-0.00;-1.63;-10.45;-1.85;-6.75
-1.63;-29.84;-2.50;-16.12;-1.85;-3.48
2.40;4.79;-1.63;-7.19;-5.01;-10.78
1.63;-6.53;-0.87;-8.82;-0.22;1.31
-1.63;-4.03;0.76;1.63;-5.01;4.57
-0.00;3.16;1.52;6.43;1.42;-1.09
-3.27;-0.87;2.40;9.69;12.74;1.31
-6.43;0.76;2.40;6.43;23.96;-26.03
-3.27;-0.87;-0.87;9.69;33.65;1.31
-0.00;1.52;2.40;8.06;55.43;2.94
2.40;-21.02;0.76;37.90;36.92;6.97
12.85;-29.84;1.52;-1.63;-1.85;6.97
3.16;4.79;-1.63;-3.16;-22.00;0.54
-2.40;0.76;-22.65;-4.79;-35.61;-3.48
-0.00;-28.21;-2.50;-5.66;-35.61;-1.09
-3.27;0.76;-1.63;-1.63;-38.11;-0.33
-1.63;-1.63;-0.87;-1.63;-34.85;-3.48
1.63;5.55;-0.00;-1.63;-25.16;-2.72
-0.00;-2.50;-2.50;-8.82;-11.43;-1.09
2.40;4.03;-1.63;-2.40;3.81;-3.48
-0.00;21.67;15.25;-2.40;9.47;-12.41
0.76;2.40;-29.08;1.63;16.77;-2.72
-2.40;-2.50;-4.03;-4.03;16.77;-9.15
-0.00;18.51;13.61;4.90;22.32;-4.36
-2.40;-5.66;-1.63;21.78;21.56;2.18
-1.63;2.40;-0.00;2.40;18.30;2.18
2.40;21.67;0.76;6.43;12.74;1.31
4.03;24.94;-0.87;7.30;9.47;0.54
2.40;22.54;-0.87;-2.40;-4.25;2.18
2.40;12.85;-0.87;2.40;3.81;1.31
1.63;16.01;-0.87;-2.40;-8.28;2.18
1.63;2.40;3.92;-1.63;3.81;2.94
-2.40;-21.02;-0.87;-0.76;-2.61;1.31
-6.43;-6.53;3.92;-4.79;-9.91;-0.33
-7.30;12.85;-0.87;-5.66;-9.04;-25.26
-6.43;2.40;-0.87;-4.03;-13.07;-1.09
-1.63;-6.53;-21.78;0.87;-0.98;1.31
0.76;-4.03;-2.50;0.00;-0.22;-1.09
2.40;-2.50;-1.63;-2.40;3.81;6.21
7.19;3.16;-16.12;-0.76;8.71;12.63
4.03;-0.00;-0.87;0.87;2.18;-1.85
2.40;-0.87;-1.63;4.03;-0.22;-4.36
-1.63;0.76;3.92;8.06;-3.38;-5.88
3.16;4.03;-0.87;-1.63;-9.04;18.30
2.40;3.16;-1.63;-4.79;7.84;-5.88
0.76;26.57;-7.30;4.90;-13.94;-1.09
-7.30;2.40;2.40;4.90;-6.64;1.31
-1.63;-0.87;3.16;-2.40;-7.41;-3.48
0.76;-3.27;-0.00;4.03;3.81;-2.72
-0.87;-4.03;18.51;9.69;16.77;-8.39
-9.69;-12.09;-1.63;41.06;16.77;-6.75
-6.43;-0.87;2.40;4.03;19.93;1.31
2.40;-5.66;-1.63;-3.16;15.14;18.30
8.06;3.16;3.92;27.44;4.68;5.34
0.76;-0.87;-9.69;-17.75;-4.25;1.31
-0.00;-2.50;0.76;-17.75;-8.28;14.27
7.19;-3.27;-4.03;-16.12;-13.94;5.34
-1.63;-26.68;-1.63;-11.22;-16.33;2.18
-2.40;18.51;0.76;0.87;-13.07;5.34
2.40;4.03;-1.63;-3.16;-11.43;-1.09
2.40;23.30;-5.66;-3.16;-0.22;-0.33
-1.63;-2.50;-16.12;4.03;-0.98;-4.36
2.40;-0.87;-0.00;4.03;5.44;-2.72
-2.40;-2.50;0.76;25.81;7.84;-1.09
-1.63;2.40;-1.63;8.93;7.84;-11.54
-1.63;16.88;7.19;9.69;5.44;-7.51
-6.43;4.79;0.76;9.69;9.47;-5.88
-3.27;4.03;2.40;4.03;3.81;-1.09
2.40;-11.33;-0.00;4.03;7.84;-5.88
-0.00;3.16;2.40;2.40;13.50;1.31
-2.40;0.76;-0.87;8.93;11.11;2.18
-1.63;4.03;-1.63;-0.76;7.84;9.37
-0.00;1.52;-0.00;0.87;-0.98;9.37
6.43;2.40;-19.38;1.63;0.65;10.24
15.25;-2.50;-1.63;-2.40;3.05;-16.44
0.76;19.28;3.92;-0.76;-26.03;2.18
0.76;16.88;2.40;-32.23;-5.01;-4.36
-5.66;1.52;0.76;-6.43;-2.61;-2.72
2.40;-0.00;-2.50;-3.16;3.81;-1.09
2.40;0.76;-1.63;-3.16;3.81;-2.72
2.40;-31.47;-1.63;19.38;-8.28;-1.09
1.63;1.52;-1.63;-2.40;-17.10;-9.15
-2.40;18.51;-1.63;-3.16;-9.91;-6.75
-0.00;27.33;-1.63;2.40;-22.76;-13.94
-1.63;-8.06;-0.87;7.30;-26.03;-0.33
2.40;-21.02;-1.63;8.93;-22.00;-1.09
0.76;-2.50;-1.63;8.06;-9.91;-2.72
1.63;-8.93;-0.87;0.00;-7.41;-3.48
0.76;-22.65;-1.63;-3.16;27.99;6.21
1.63;-15.35;-0.87;-7.19;34.41;-22.00
1.63;-21.02;3.92;-7.19;33.65;2.18
2.40;-0.00;-1.63;-5.66;24.83;5.34
-4.90;-7.30;-4.90;-2.40;11.11;15.03
-4.90;-1.63;4.79;-2.40;3.05;5.34
-1.63;-2.50;0.76;2.40;-21.13;2.18
-2.40;2.40;1.52;7.30;-38.88;1.31
-0.00;4.79;-1.63;4.90;-5.01;1.31
-5.66;3.16;-0.87;8.06;-17.97;-2.72
-4.90;5.55;-0.00;4.90;-13.94;-4.36
-4.90;3.16;-1.63;-0.76;-35.61;-8.39
-0.00;4.03;-1.63;34.63;-21.13;-4.36
1.63;-2.50;-2.50;-3.16;-5.01;-9.15
1.63;-6.53;-1.63;-5.66;-0.22;-4.36
2.40;2.40;-5.66;-4.79;3.81;-6.75
4.79;21.67;-1.63;-6.43;15.14;0.54
10.45;-2.50;-1.63;-2.40;15.14;6.21
11.22;-18.62;-0.87;-3.16;3.81;9.37
14.48;0.76;0.76;-0.76;21.56;10.24
4.79;4.03;2.40;-1.63;-0.98;-0.33
1.63;-12.96;0.76;-2.40;-16.33;-1.09
-6.43;32.13;-1.63;-5.66;-17.10;-5.88
-9.69;-6.53;2.40;-2.40;-17.97;-7.51
-12.09;0.76;-0.87;-0.76;-21.13;0.54
-11.33;-3.27;-0.87;0.00;-14.70;-1.85
-9.69;-7.30;14.48;-2.40;3.81;0.54
-3.27;-2.50;-1.63;-1.63;7.84;-3.48
2.40;3.16;-0.87;1.63;1.42;2.18
1.63;25.70;3.16;-2.40;3.81;8.60
13.72;0.76;-1.63;-1.63;6.21;12.63
19.28;3.16;-0.87;0.87;3.81;9.37
11.22;5.55;-1.63;-2.40;-1.85;1.31
4.03;-0.87;-1.63;-4.79;-4.25;-1.09
2.40;2.40;-1.63;2.40;-29.19;-5.88
-3.27;4.03;-1.63;-7.19;-7.41;-7.51
-8.93;4.03;-1.63;-3.16;-22.00;-5.88
-3.27;-21.78;0.76;-1.63;3.81;0.54
-2.40;-4.03;-0.00;2.40;5.44;-5.88
-0.00;8.82;3.92;30.60;5.44;1.31
6.43;4.03;-0.87;-20.15;8.71;1.31
2.40;7.19;4.79;9.69;7.08;1.31
-1.63;2.40;-0.87;0.87;5.44;2.94
2.40;2.40;0.76;4.90;3.81;5.34
2.40;-0.00;3.16;2.40;-13.94;2.18
2.40;4.03;2.40;4.90;3.81;5.34
2.40;-21.02;0.76;-7.19;3.05;11.00
2.40;-0.00;3.92;0.87;3.81;2.94
-1.63;-6.53;3.92;-0.76;2.18;6.21
12.09;-0.87;-2.50;-4.79;-17.10;0.54
-1.63;2.40;-1.63;-4.79;-3.38;-10.78
-6.43;4.03;-5.66;-3.16;-4.25;-12.41
-2.40;1.52;-5.66;-3.16;-8.28;-0.33
-1.63;-25.81;-4.90;-3.16;-9.04;-4.36
-2.40;4.79;-1.63;30.60;-13.94;-5.88
1.63;-0.00;-4.03;-1.63;-7.41;6.97
0.76;-12.09;-1.63;0.87;-3.38;0.54
-0.00;4.79;-0.87;2.40;3.81;-0.33
-4.90;4.03;-0.87;4.03;3.81;1.31
-1.63;-0.00;-1.63;0.87;13.50;-4.36
1.63;-6.53;-0.87;11.33;20.80;-0.33
0.76;4.03;0.76;8.06;18.30;1.31
-2.40;-4.03;-16.99;-2.40;15.90;2.18
-3.27;2.40;2.40;2.40;6.21;1.31
1.63;-0.00;-8.93;5.66;1.42;1.31
-1.63;-19.38;3.16;-0.76;-10.67;6.97
-0.87;-9.69;-0.00;-4.03;-21.13;3.70
-1.63;-5.66;3.16;9.69;-22.00;0.54
-0.00;-2.50;-4.03;13.72;-22.00;-0.33
2.40;4.79;1.52;25.81;-18.73;-0.33
-2.40;-8.06;-1.63;-3.16;-22.76;-2.72
-4.90;-0.00;-3.27;-8.82;-13.07;-8.39
-1.63;0.76;-4.03;-16.12;-3.38;-6.75
-0.87;2.40;-1.63;-16.12;3.81;-9.91
2.40;1.52;-3.27;-15.25;9.47;-9.15
-0.87;-2.50;-1.63;-7.19;11.87;-2.72
2.40;-3.27;-1.63;-10.45;15.90;-1.09
1.63;13.61;10.45;0.87;15.90;-0.33
4.03;-5.66;-1.63;4.03;8.71;0.54
3.16;2.40;0.76;-13.72;3.81;13.39
8.06;-3.27;-0.87;9.69;-0.22;11.76
8.06;0.76;3.16;9.69;-5.01;5.34
12.85;-0.00;2.40;8.93;-9.91;-2.72
-2.40;-5.66;-0.87;5.66;-7.41;-7.51
-11.33;18.51;2.40;7.30;-5.88;-0.33
-4.90;-3.27;3.92;4.03;-3.38;1.31
-4.90;36.15;-0.00;-8.06;-22.00;2.18
-7.30;2.40;2.40;-2.40;3.81;-0.33
-8.93;-4.03;-0.00;-5.66;11.87;-2.72
-5.66;-10.56;0.76;2.40;15.90;1.31
1.63;2.40;-1.63;9.69;8.71;1.31
6.43;-31.47;-1.63;8.93;5.44;5.34
11.22;3.16;-4.03;4.03;3.81;31.15
2.40;-0.00;-1.63;-0.76;-11.43;-6.75
-4.90;-13.72;-2.50;-33.00;-14.70;-5.88
-1.63;-0.00;-1.63;-8.82;3.81;1.31
6.43;-12.09;-1.63;35.50;-9.04;3.70
4.03;4.79;-1.63;5.66;-8.28;1.31
1.63;-2.50;-0.87;0.87;-17.97;-6.75
-4.90;0.76;-0.87;14.48;-22.00;-3.48
-7.30;-0.00;2.40;0.87;-24.39;-5.88
-5.66;0.76;-1.63;-27.33;-0.98;-1.85
-12.09;30.60;-1.63;-1.63;3.81;-1.09
-2.40;27.33;-1.63;2.40;27.22;19.82
4.79;-7.30;3.16;0.00;9.47;-16.44
12.85;-8.06;3.92;-4.03;4.68;10.24
9.69;-30.71;3.16;0.87;-17.97;5.34
3.16;-0.87;0.76;1.63;-0.22;4.57
7.19;1.52;-0.00;-1.63;-4.25;3.70
6.43;-10.56;0.76;2.40;-9.04;6.21
1.63;11.98;-1.63;-5.66;-9.91;0.54
1.63;-6.53;-3.27;-2.40;-13.07;-0.33
3.16;-25.05;-1.63;-3.16;-6.64;-7.51
-0.00;2.40;-1.63;-7.19;2.18;-6.75
-4.90;-3.27;-3.27;-1.63;-0.22;-9.91
-3.27;-3.27;-1.63;-1.63;-0.22;-6.75
-0.00;-4.03;-0.87;-5.66;-4.25;-1.09
-0.00;4.79;-1.63;-8.06;-0.98;-6.75
-3.27;-25.05;-1.63;-2.40;-0.98;-7.51
-9.69;-5.66;1.52;1.63;-26.79;-6.75
-2.40;3.16;-1.63;-3.16;-13.07;-2.72
1.63;2.40;-1.63;2.40;1.42;-0.33
2.40;4.79;3.16;0.87;3.81;-5.88
-0.00;3.16;-1.63;4.03;6.21;5.34
-0.00;-3.27;-1.63;-3.16;3.81;4.57
-0.87;-29.08;2.40;0.87;4.68;6.97
2.40;30.60;3.92;2.40;3.81;-16.44
2.40;2.40;3.16;4.03;7.84;1.31
-0.87;-5.66;1.52;2.40;7.08;4.57
0.76;15.25;-0.00;-0.76;5.44;-0.33
2.40;0.76;-0.87;4.03;3.81;1.31
1.63;8.82;-1.63;19.38;2.18;-1.09
1.63;0.76;-1.63;0.00;-0.98;-1.09
-0.00;0.76;-3.27;-2.40;1.42;-0.33
-1.63;0.76;-2.50;2.40;4.68;-1.09
2.40;-0.00;-1.63;-3.16;3.81;-3.48
2.40;-0.00;-1.63;4.03;11.11;-2.72
-0.87;4.79;-1.63;8.93;12.74;1.31
-0.87;2.40;-2.50;2.40;12.74;2.18
0.76;-0.00;-0.87;4.90;6.21;1.31
2.40;4.79;2.40;2.40;2.18;-1.09
10.45;-4.90;-1.63;0.87;-11.43;11.76
2.40;2.40;0.76;-2.40;-22.00;1.31
-0.00;1.52;2.40;-0.76;-29.19;-2.72
-3.27;-35.50;-1.63;-0.76;-22.76;0.54
2.40;13.61;0.76;4.90;-4.25;1.31
1.63;-4.03;0.76;2.40;-12.31;27.12
-1.63;-4.03;3.16;-1.63;-7.41;1.31
-1.63;-33.11;-2.50;-2.40;3.81;1.31
-8.93;4.79;0.76;-4.03;10.24;-2.72
-4.90;2.40;-0.87;-5.66;21.56;-3.48
-1.63;2.40;13.61;-4.03;17.53;-15.57
2.40;23.30;-1.63;9.69;14.27;-11.54
4.03;20.04;-3.27;-2.40;3.05;-31.69
2.40;2.40;2.40;0.87;-4.25;-1.09
1.63;-6.53;-2.50;-2.40;-8.28;-7.51
1.63;4.03;3.16;-0.76;-13.07;-6.75
1.63;2.40;0.76;-3.16;-17.10;1.31
11.22;-8.06;0.76;-2.40;-17.10;4.57
2.40;1.52;-0.87;0.00;-9.91;-5.88
1.63;-0.87;-0.00;-0.76;-6.64;-6.75
1.63;-0.87;-2.50;1.63;3.05;-2.72
-0.00;1.52;-1.63;2.40;2.18;-0.33
-5.66;-0.00;0.76;-4.03;4.68;1.31
-2.40;-0.00;-5.66;-4.03;4.68;-7.51
-9.69;-2.50;0.76;0.87;4.68;2.94
-5.66;-2.50;-0.00;4.90;9.47;4.57
-11.33;-2.50;0.76;10.45;4.68;2.18
-8.06;0.76;5.55;13.72;11.87;3.70
0.76;-3.27;3.92;-14.48;15.90;6.21
4.79;0.76;-0.00;-1.63;14.27;2.18
4.03;4.03;-13.72;-10.45;5.44;3.70
6.43;4.79;-1.63;-12.85;7.08;-0.33
11.22;4.79;-1.63;-14.48;5.44;3.70
17.75;2.40;-2.50;-14.48;-3.38;3.70
16.88;0.76;-1.63;-2.40;-8.28;-2.72
2.40;0.76;-1.63;9.69;-10.67;-6.75
-2.40;-0.00;-1.63;9.69;-24.39;-20.47
-8.93;2.40;-0.00;23.41;0.65;-11.54
-1.63;25.70;-1.63;0.87;-25.16;12.63
-2.40;-0.87;-1.63;0.00;-21.13;-3.48
2.40;4.03;-0.87;-4.03;-7.41;1.31
-4.90;-16.99;-0.00;-7.19;-1.85;-3.48
-4.90;9.58;-8.93;-4.03;-3.38;-22.87
-7.30;0.76;1.52;-2.40;-0.22;-4.36
-7.30;7.19;33.00;-3.16;6.21;-3.48
-3.27;4.03;2.40;0.00;20.80;2.18
-2.40;-0.00;-2.50;8.93;21.56;2.18
2.40;7.19;6.43;8.93;11.87;3.70
-0.00;-4.03;0.76;-1.63;3.81;2.94
1.63;-3.27;-1.63;-3.16;-0.98;-0.33
8.06;2.40;-0.87;-2.40;1.42;15.03
8.06;-0.00;-1.63;29.84;-13.94;-2.72
-4.90;-3.27;-4.03;-3.16;-10.67;-3.48
-4.90;30.60;-2.50;-4.79;-6.64;-6.75
-1.63;4.79;-1.63;-3.16;-4.25;-7.51
2.40;-0.00;-1.63;-2.40;1.42;-2.72
2.40;1.52;-0.87;-2.40;3.05;-0.33
4.03;3.16;-0.87;-0.76;1.42;-6.75
0.76;-9.69;-2.50;1.63;-4.25;1.31
-4.90;-3.27;2.40;-0.76;-6.64;-0.33
-9.69;-0.00;-0.87;1.63;-7.41;1.31
-5.66;-2.50;-0.87;-0.76;-4.25;1.31
-6.43;4.03;-1.63;2.40;1.42;0.54
-6.43;-2.50;3.16;-0.76;1.42;0.54
-0.87;-33.11;3.92;12.09;3.05;1.31
-0.87;2.40;0.76;-3.16;6.21;2.18
-0.87;-5.66;-0.87;11.33;2.18;2.18
2.40;4.03;-0.87;-0.76;0.65;4.57
12.09;4.03;2.40;-3.16;3.81;1.31
4.03;2.40;-0.00;-3.16;3.05;0.54
2.40;2.40;-1.63;-1.63;3.81;27.12
13.72;3.16;-0.00;7.30;3.05;1.31
10.45;1.52;-4.03;2.40;0.65;2.94
0.76;-13.72;-1.63;7.30;3.81;0.54
-0.00;5.55;-1.63;-17.75;7.84;-5.88
-0.87;24.94;-1.63;28.21;17.53;-2.72
-4.03;2.40;-0.87;1.63;7.08;-6.75
-5.66;4.03;-1.63;6.43;12.74;-3.48
-2.40;-0.00;-1.63;7.30;6.21;-1.09
-3.27;1.52;-0.00;4.03;7.08;-2.72
-2.40;12.85;0.76;8.93;3.81;-25.26
2.40;-2.50;-1.63;4.90;1.42;-22.00
-0.00;2.40;0.76;12.09;-11.43;0.54
-2.40;0.76;1.52;4.90;-14.70;1.31
-2.40;-12.09;-0.00;-4.03;-16.33;1.31
-6.43;-0.00;7.95;-6.43;-20.36;-0.33
-2.40;0.76;-0.87;-4.79;-22.76;0.54
-4.90;4.03;0.76;-8.82;-24.39;0.54
1.63;4.79;0.76;-13.72;-24.39;-1.09
0.76;24.07;-1.63;-3.16;-22.00;-1.09
2.40;-32.23;-0.00;-2.40;-19.49;-0.33
24.94;-23.41;-0.00;16.88;-0.22;2.18
20.15;4.79;-1.63;-0.76;7.84;1.31
2.40;-3.27;-3.27;-3.16;3.81;-1.09
-0.00;-12.09;-4.03;0.87;11.87;7.73
-1.63;12.85;-0.00;-0.76;8.71;14.27
-5.66;-0.87;1.52;1.63;9.47;-1.09
2.40;1.52;-1.63;2.40;12.74;-7.51
2.40;-21.02;0.76;2.40;7.08;-15.57
-4.90;3.16;-0.87;5.66;7.84;1.31
-4.90;-0.00;1.52;2.40;-0.22;-0.33
-1.63;3.16;0.76;2.40;5.44;5.34
-6.43;-6.53;1.52;-0.76;12.74;1.31
-1.63;-0.87;3.92;-24.18;7.84;3.70
-2.40;0.76;2.40;26.57;4.68;4.57
-3.27;-20.15;3.16;1.63;-13.07;6.97
2.40;12.85;0.76;34.63;20.80;9.37
1.63;0.76;-0.87;-12.09;6.21;1.31
2.40;29.73;-1.63;-0.76;3.81;1.31
2.40;-0.87;-1.63;0.87;3.81;0.54
7.19;4.79;-2.50;12.96;3.05;1.31
4.79;-4.03;-2.50;2.40;-1.85;-9.15
2.40;-5.66;-1.63;-4.03;-12.31;-3.48
2.40;-2.50;-1.63;-26.57;-13.94;-3.48
-3.27;2.40;-1.63;-0.76;-24.39;-5.88
-1.63;-2.50;2.40;-2.40;-34.85;-6.75
-1.63;2.40;-1.63;-0.76;-33.21;-17.21
-0.87;-0.87;-1.63;1.63;-21.13;-6.75
2.40;-0.87;-1.63;4.90;-14.70;0.54
2.40;-0.87;2.40;7.30;-3.38;0.54
2.40;-1.63;1.52;-0.76;11.11;3.70
2.40;-0.87;-0.00;-3.16;16.77;10.24
-1.63;-7.30;3.92;-3.16;19.17;1.31
-5.66;3.16;11.22;8.06;20.80;1.31
-6.43;-21.02;2.40;0.87;18.30;2.94
1.63;1.52;7.95;-6.43;15.14;1.31
-4.90;6.43;5.55;-16.12;5.44;9.37
2.40;9.58;-0.00;-13.72;-0.22;6.21
2.40;3.16;-14.59;-12.09;-9.04;1.31
8.06;-0.87;2.40;-10.45;-7.41;-2.72
14.48;2.40;-0.87;-3.16;-20.36;1.31
4.03;2.40;-2.50;-0.76;-8.28;-2.72
-4.90;28.10;-2.50;8.06;-5.01;-2.72
1.63;37.79;-1.63;12.96;3.05;1.31
-4.03;-9.69;-1.63;8.06;-0.22;0.54
-3.27;-0.00;-1.63;-18.51;5.44;-2.72
2.40;15.25;-0.00;0.87;6.21;-24.50
2.40;-2.50;-0.00;-3.16;11.11;-0.33
10.45;16.01;0.76;-4.03;29.62;5.34
2.40;4.03;-9.69;1.63;27.22;-9.15
-0.87;-0.87;0.76;2.40;9.47;-9.91
-5.66;-2.50;-0.00;-1.63;1.42;-2.72
-8.06;-0.87;3.16;-3.16;-10.67;-2.72
-8.06;4.79;2.40;-3.16;-13.07;2.18
-4.90;-20.15;-1.63;-4.03;-22.00;-1.85
-5.66;30.60;1.52;-6.43;-21.13;4.57
-5.66;18.51;1.52;-6.43;-13.07;2.18
2.40;-1.63;0.76;-14.48;-4.25;6.21
11.22;-0.00;-1.63;-4.79;14.27;-3.48
6.43;0.76;-0.00;-3.16;7.84;1.31
-1.63;-1.63;-1.63;-11.22;-1.85;-7.51
-1.63;-2.50;-2.50;-1.63;2.18;-4.36
-1.63;-3.27;-1.63;-3.16;-8.28;0.54
-0.87;2.40;-1.63;-2.40;-9.91;-4.36
-0.00;24.94;-0.00;-2.40;-19.49;-1.09
3.16;2.40;0.76;6.43;-23.52;-2.72
4.03;-12.09;-2.50;4.03;-17.97;-10.78
3.16;-28.21;0.76;4.03;-5.88;0.54
3.16;0.76;1.52;1.63;1.42;2.18
6.43;4.79;0.76;-2.40;4.68;11.76
15.25;5.55;1.52;6.43;3.05;1.31
2.40;0.76;-1.63;1.63;11.87;8.60
-1.63;-0.00;0.76;0.87;16.77;2.94
-4.90;-8.06;-0.00;2.40;14.27;1.31
-5.66;-3.27;1.52;-3.16;15.90;1.31
-0.00;-0.00;3.16;-1.63;7.84;-17.21
-4.90;4.79;2.40;-5.66;7.08;9.37
0.76;2.40;0.76;1.63;8.71;3.70
0.76;-2.50;-4.03;-2.40;10.24;-1.85
-5.66;4.79;-1.63;2.40;3.81;-3.48
-9.69;4.79;-1.63;0.00;-5.88;-7.51
-4.03;30.60;1.52;1.63;3.05;-7.51
-0.00;-0.00;-2.50;1.63;-3.38;-5.12
4.03;-2.50;-1.63;-2.40;9.47;-30.06
-0.00;2.40;0.76;-5.66;-12.31;-13.18
-1.63;22.54;-1.63;-0.76;2.18;-2.72
-0.00;-25.05;-1.63;-0.76;-16.33;-1.09
2.40;4.79;-1.63;3.27;-14.70;-1.09
0.76;0.76;0.76;4.03;-9.91;2.18
3.16;0.76;-0.00;-0.76;-0.22;8.60
9.69;-8.93;-0.87;4.03;5.44;29.51
3.16;-12.09;2.40;-3.16;11.11;-3.48
0.76;7.19;-0.00;28.21;15.90;2.18
-2.40;2.40;-1.63;-0.76;16.77;2.18
-2.40;4.03;3.16;-2.40;19.17;13.39
-4.90;3.16;3.92;-1.63;16.77;-22.00
-3.27;0.76;2.40;0.87;18.30;2.18
-1.63;-5.66;3.16;0.87;13.50;2.94
-4.90;30.60;-1.63;2.40;11.87;1.31
0.76;-0.00;-2.50;0.87;-0.22;-2.72
1.63;-25.81;-1.63;-16.12;-0.98;-5.88
4.79;6.43;-1.63;2.40;-3.38;6.97
7.19;2.40;-3.27;-3.16;-13.07;1.31
2.40;3.16;-0.87;-5.66;-44.54;-4.36
2.40;-21.02;-1.63;-4.03;-27.55;1.31
3.16;10.45;-1.63;-4.79;-35.61;-4.36
2.40;8.82;-1.63;-10.45;-35.61;-8.39
-1.63;-3.27;-1.63;-21.78;-34.09;-9.91
-6.43;21.67;-0.87;-8.82;-17.10;3.70
-1.63;27.33;-1.63;-13.72;6.21;-5.88
0.76;-0.00;-2.50;-16.12;-1.85;1.31
8.06;0.76;-1.63;-0.76;9.47;6.21
2.40;-4.03;-0.87;-3.16;11.87;0.54
2.40;-25.81;-1.63;-1.63;15.90;8.60
5.66;-4.90;-0.00;7.30;17.53;6.21
1.63;-10.56;6.43;7.30;7.84;11.00
-3.27;13.61;2.40;-0.76;3.81;3.70
-8.93;4.79;-0.87;0.87;3.81;2.18
-9.69;-3.27;3.16;-2.40;6.21;12.63
-5.66;0.76;-1.63;2.40;9.47;-4.36
0.76;-4.90;-1.63;8.93;5.44;-3.48
-0.00;-25.81;-3.27;1.63;3.81;1.31
3.16;-2.50;-1.63;2.40;6.21;-4.36
2.40;-2.50;-1.63;5.66;17.53;0.54
12.09;3.16;0.76;17.75;14.27;8.60
8.06;4.79;0.76;20.91;18.30;1.31
2.40;2.40;-0.00;37.03;7.84;-4.36
-0.00;30.60;3.92;-3.16;-0.22;-3.48
-0.00;4.79;3.16;16.88;0.65;0.54
1.63;4.03;-0.00;-16.12;-6.64;-2.72
-4.90;2.40;-0.87;-24.18;-17.10;-1.09
0.76;12.85;-0.00;-24.94;-26.79;1.31
-2.40;2.40;-1.63;-14.48;-28.42;0.54
-8.93;-26.68;-1.63;-14.48;-30.82;-1.09
-4.90;-8.06;-3.27;-5.66;-22.76;0.54
-3.27;12.85;0.76;-2.40;-19.49;-0.33
-0.00;-6.53;-0.87;-2.40;-6.64;1.31
2.40;32.13;-1.63;24.94;-1.85;2.94
1.63;5.55;0.76;10.45;3.81;5.34
4.03;-2.50;3.16;9.69;6.21;12.63
6.43;4.79;-1.63;2.40;8.71;2.94
3.16;4.03;-1.63;-24.94;14.27;-1.09
2.40;-22.65;-4.03;8.06;15.14;-5.88
-0.00;4.79;-4.03;4.90;11.87;-3.48
-0.00;-21.02;-1.63;7.30;3.81;-3.48
-6.43;4.03;-1.63;4.90;-0.98;-3.48
-1.63;-3.27;-1.63;10.45;-4.25;-5.88
-1.63;2.40;-3.27;5.66;-0.22;-3.48
2.40;-0.00;2.40;-3.16;7.84;1.31
3.16;-4.03;0.76;-3.16;15.14;-2.72
-0.87;-6.53;-0.00;6.43;7.84;-0.33
2.40;-0.87;1.52;-0.76;4.68;-6.75
2.40;-13.72;2.40;-0.76;5.44;-1.85
-0.87;30.60;16.01;2.40;3.05;3.70
-0.00;0.76;3.16;0.87;3.81;4.57
2.40;-18.62;1.52;0.87;-3.38;8.60
1.63;4.79;0.76;-3.16;-24.39;15.79
2.40;2.40;-0.00;-16.12;-6.64;10.24
-2.40;-3.27;-1.63;-3.16;-4.25;2.18
-0.00;-31.47;-1.63;-2.40;-4.25;-2.72
-5.66;-0.87;-2.50;-2.40;-0.98;-3.48
-8.06;-3.27;-1.63;-31.36;0.65;-0.33
-0.00;0.76;-2.50;-3.16;3.81;1.31
10.45;3.16;-1.63;9.69;5.44;-1.09
20.91;4.79;0.76;4.03;3.81;1.31
3.16;4.03;-1.63;-1.63;3.05;-2.72
1.63;-32.23;0.76;2.40;-10.67;-8.39
-0.00;4.03;-0.87;2.40;-2.61;-3.48
-0.87;-21.02;-26.68;1.63;-4.25;-6.75
-6.43;17.64;2.40;4.03;-6.64;-19.60
-4.90;-0.00;3.16;1.63;-5.88;-7.51
-0.00;-8.06;-3.27;5.66;3.81;-23.63
-2.40;0.76;-1.63;0.87;3.81;-0.33
-1.63;-3.27;-12.96;5.66;4.68;10.24
-7.30;-4.03;7.95;7.30;14.27;1.31
-4.90;-2.50;-0.00;20.91;20.80;11.76
8.06;-0.00;-0.87;1.63;19.17;19.82
5.66;1.52;-0.87;4.90;7.08;6.21
-2.40;1.52;-0.00;-3.16;3.05;0.54
-3.27;0.76;-1.63;-3.16;-18.73;-0.33
2.40;-3.27;-4.03;-3.16;-22.00;-1.09
3.16;-8.06;-1.63;-4.03;-29.19;-2.72
6.43;2.40;-0.87;-4.79;-27.55;-0.33
12.85;-11.33;0.76;-0.76;-22.76;-9.15
2.40;-0.87;-0.87;-0.76;-17.10;-11.54
-1.63;-8.93;-0.00;-2.40;-8.28;-10.78
-1.63;-3.27;-3.27;-1.63;5.44;-5.88
-5.66;-11.33;-5.66;-3.16;12.74;-9.15
-2.40;-2.50;-2.50;-0.76;8.71;-3.48
-2.40;-0.00;-1.63;1.63;5.44;1.31
0.76;-0.87;-0.00;5.66;-0.22;1.31
-2.40;2.40;-1.63;2.40;-5.88;-0.33
-5.66;2.40;-0.00;-4.03;1.42;1.31
-0.00;-2.50;-0.87;-0.76;-4.25;15.79
-2.40;15.25;2.40;-4.03;-0.98;4.57
0.76;4.03;2.40;-4.03;0.65;21.45
-1.63;4.79;0.76;-4.03;3.81;2.94
-1.63;2.40;-1.63;-4.79;7.84;1.31
0.76;33.00;0.76;-2.40;15.90;1.31
-4.90;4.03;-0.87;-2.40;19.17;1.31
-8.06;-0.00;-1.63;-2.40;15.90;-5.88
-0.87;-6.53;-1.63;-3.16;7.84;-8.39
1.63;10.45;-2.50;2.40;6.21;-5.88
3.16;2.40;-2.50;2.40;-1.85;-2.72
8.06;-0.87;-1.63;5.66;-7.41;0.54
10.45;-3.27;-1.63;0.87;-16.33;1.31
5.66;-0.00;-0.87;27.44;-45.30;0.54
3.16;29.73;-0.00;2.40;-22.00;4.57
4.03;-0.87;0.76;-1.63;-14.70;2.18
3.16;-2.50;-0.87;-5.66;-7.41;13.39
2.40;-7.30;-0.87;-8.82;-4.25;-0.33
-0.00;4.79;-1.63;-0.76;-0.98;1.31
-8.93;31.36;-0.00;2.40;5.44;-12.41
-6.43;5.55;5.55;-8.06;4.68;2.94
-8.06;-0.00;3.16;4.03;3.05;1.31
-5.66;-0.87;2.40;-2.40;3.81;1.31
-8.93;-3.27;3.92;-2.40;3.81;1.31
-4.90;-0.87;1.52;-5.66;5.44;-0.33
-0.00;2.40;0.76;4.90;3.81;-2.72
2.40;-0.87;-1.63;8.06;7.84;-1.09
1.63;25.70;-1.63;-20.15;16.77;0.54
4.79;1.52;-2.50;0.00;11.87;-2.72
4.03;27.33;-4.03;8.06;3.81;-2.72
4.03;1.52;-1.63;2.40;-5.88;-1.09
4.03;-19.38;-1.63;-4.79;-8.28;0.54
4.79;-2.50;-0.87;-15.25;-5.01;-0.33
6.43;0.76;-1.63;-14.48;-8.28;2.94
-4.90;-4.03;-0.87;-13.72;-4.25;-2.72
-2.40;-20.15;-1.63;-12.09;-9.04;-2.72
-8.06;-0.00;2.40;-5.66;-0.98;-4.36
-2.40;3.16;-0.87;-2.40;-0.22;1.31
-5.66;-0.87;-0.00;4.03;3.81;0.54
4.79;0.76;-0.00;7.30;3.81;5.34
2.40;4.79;3.16;2.40;3.81;6.97
4.79;4.79;2.40;6.43;3.05;9.37
14.48;-0.00;0.76;8.93;3.81;-9.91
2.40;4.79;-0.00;0.87;3.81;4.57
-0.00;-3.27;-2.50;36.26;2.18;-1.85
-0.87;-1.63;-0.87;-1.63;0.65;-2.72
2.40;4.79;-1.63;4.90;4.68;-1.09
-2.40;-0.00;-2.50;-0.76;8.71;-2.72
-2.40;2.40;-1.63;-1.63;3.81;-5.88
-5.66;20.04;-2.50;-0.76;4.68;-8.39
-1.63;3.16;-1.63;2.40;1.42;-8.39
-1.63;2.40;-1.63;7.30;-6.64;-2.72
8.06;3.16;3.16;-2.40;-9.91;1.31
10.45;0.76;-0.87;4.90;-8.28;-5.88
2.40;4.79;-0.00;0.87;-8.28;16.66
-4.90;0.76;-0.00;-5.66;-1.85;-1.09
-0.00;-4.03;-1.63;-1.63;-8.28;1.31
-6.43;-7.30;-1.63;-4.03;12.74;1.31
-0.87;36.15;0.76;7.30;11.11;1.31
-0.00;30.60;-0.00;20.91;15.14;1.31
-2.40;-0.00;22.54;4.90;6.21;9.37
-1.63;-5.66;20.04;-2.40;2.18;5.34
2.40;5.55;3.16;8.06;-15.46;9.37
-0.00;-3.27;-0.00;1.63;6.21;3.70
-1.63;33.00;-0.87;-24.94;6.21;2.94
0.76;0.76;-1.63;1.63;9.47;1.31
-2.40;1.52;-1.63;0.87;13.50;-3.48
0.76;-0.87;-2.50;-4.03;5.44;-4.36
1.63;2.40;-1.63;-2.40;-7.41;-6.75
1.63;-6.53;-4.90;-0.76;-17.10;-23.63
1.63;2.40;-1.63;0.87;-22.00;-1.09
2.40;-8.06;0.76;-4.03;-47.70;-2.72
1.63;-3.27;-1.63;1.63;-35.61;-3.48
5.66;0.76;-0.00;-1.63;-34.09;-7.51
1.63;-3.27;-0.00;-4.03;-22.76;-7.51
-0.87;-0.00;-0.87;-5.66;-13.07;-4.36
0.76;2.40;-0.00;-8.06;-5.88;-2.72
2.40;-23.41;-0.00;-4.03;3.81;-11.54
1.63;0.76;-0.87;-4.79;9.47;1.31
4.79;4.03;7.19;-0.76;14.27;6.21
-0.00;28.10;0.76;-0.76;14.27;6.21
-0.87;4.03;-0.87;8.06;17.53;6.21
-0.00;-0.87;3.92;-2.40;16.77;3.70
-0.00;4.79;2.40;4.03;18.30;2.18
-0.00;-0.87;6.43;5.66;23.96;1.31
-2.40;-7.30;-1.63;0.87;16.77;2.94
2.40;2.40;-0.00;4.03;15.14;1.31
3.16;29.73;22.54;1.63;8.71;1.31
8.06;13.61;-0.87;4.90;4.68;-1.09
1.63;4.03;-0.87;-0.76;3.81;-6.75
0.76;0.76;-2.50;-20.91;3.81;-2.72
2.40;2.40;-0.00;-2.40;-8.28;11.76
-0.87;4.79;-0.87;-1.63;-7.41;0.54
-2.40;-8.06;-0.00;13.72;-13.94;-3.48
-4.90;-12.96;-0.00;-0.76;-9.91;-4.36
-2.40;17.64;5.55;0.87;-5.88;-4.36
-0.00;-0.87;8.82;7.30;-4.25;11.76
11.22;-32.23;3.16;0.87;3.81;1.31
4.03;-3.27;-0.00;-0.76;3.81;-0.33
2.40;0.76;2.40;6.43;8.71;1.31
-1.63;3.16;-0.87;-0.76;1.42;-5.88
-4.90;2.40;0.76;1.63;3.05;-15.57
-7.30;-2.50;6.43;-0.76;-0.22;1.31
-11.33;3.16;-0.87;-1.63;-4.25;10.24
-8.93;23.30;-1.63;-0.76;-8.28;1.31
-4.90;-21.02;2.40;0.87;-11.43;1.31
1.63;2.40;-1.63;-8.06;-8.28;-0.33
2.40;0.76;-1.63;-3.16;-8.28;5.34
4.03;4.79;-2.50;4.90;-34.85;1.31
19.28;-2.50;-1.63;-3.16;-4.25;1.31
12.85;-21.02;-2.50;-1.63;1.42;3.70
9.69;-1.63;-3.27;-3.16;3.81;3.70
-0.00;-20.15;-1.63;-5.66;3.81;-5.88
-2.40;-2.50;-0.87;-1.63;3.05;-7.51
1.63;-5.66;3.16;-7.19;4.68;-5.88
-1.63;3.16;2.40;1.63;5.44;-5.88
2.40;-0.87;2.40;6.43;4.68;-0.33
-8.06;-31.47;3.16;22.54;22.32;-5.88
-11.33;0.76;-0.00;8.06;4.68;-3.48
-5.66;-0.00;2.40;9.69;5.44;8.60
-2.40;4.03;2.40;9.69;15.14;36.81
-1.63;-30.71;6.43;8.93;25.59;6.21
-1.63;3.16;6.43;13.72;29.62;2.94
-1.63;0.76;3.16;-5.66;6.21;6.97
-0.00;0.76;-1.63;-2.40;-1.85;-2.72
1.63;-21.02;-1.63;-12.09;-11.43;3.70
1.63;0.76;-0.87;-16.88;-17.97;25.48
4.03;4.79;-1.63;-20.91;-21.13;-11.54
3.16;2.40;-0.87;-15.25;-19.49;-3.48
1.63;4.03;-5.66;-16.12;-17.10;-9.15
1.63;0.76;-2.50;-3.16;-0.98;-12.41
1.63;-0.87;-0.87;-6.43;-7.41;-8.39
1.63;4.79;-1.63;2.40;0.65;-1.09
0.76;0.76;-2.50;5.66;-0.22;-1.09
-8.06;-2.50;-0.87;8.93;-5.01;0.54
-0.00;2.40;-0.00;-20.91;-6.64;-3.48
2.40;1.52;0.76;9.69;-0.98;2.18
4.03;-9.69;-5.66;-0.76;3.81;1.31
1.63;-0.00;-1.63;2.40;3.81;1.31
-1.63;-0.00;0.76;2.40;3.81;1.31
0.76;4.79;-0.00;1.63;3.81;6.97
-1.63;0.76;-1.63;0.87;7.08;4.57
2.40;-28.21;1.52;1.63;9.47;10.24
-0.87;-7.30;3.92;26.57;4.68;1.31
-1.63;35.39;-0.87;-2.40;11.87;-0.33
0.76;1.52;-0.00;2.40;9.47;1.31
2.40;-21.02;-0.87;4.90;3.81;-0.33
2.40;-12.09;-1.63;-2.40;-0.98;1.31
3.16;4.79;-1.63;-3.16;-5.01;-1.85
5.66;-0.87;-3.27;12.09;-9.04;-5.88
3.16;-4.90;-0.00;-2.40;-5.01;1.31
6.43;4.79;-1.63;2.40;-13.07;9.37
7.19;-0.87;-0.87;5.66;-15.46;-1.09
2.40;4.79;1.52;0.87;-17.10;-3.48
2.40;21.67;-4.03;4.03;-17.97;19.82
-3.27;37.79;-0.00;-3.16;-16.33;-1.85
-2.40;-18.62;-0.00;4.03;-11.43;1.31
0.76;2.40;1.52;-0.76;-8.28;-8.39
-1.63;-21.78;0.76;0.87;3.81;1.31
-2.40;-0.00;-5.66;-2.40;13.50;-24.50
-8.06;0.76;-0.00;-3.16;14.27;1.31
-8.06;-3.27;-1.63;-3.16;23.96;-0.33
-4.90;-4.03;-1.63;-4.79;15.14;1.31
1.63;1.52;3.92;-2.40;8.71;3.70
-2.40;-29.08;-0.00;-3.16;-0.98;1.31
-0.00;-4.03;-1.63;-16.12;-0.22;2.18
-4.90;1.52;-1.63;17.75;-0.22;2.18
2.40;3.16;-3.27;-3.16;-4.25;1.31
7.19;0.76;-1.63;2.40;-0.98;5.34
12.09;13.61;-4.03;-4.03;-6.64;4.57
2.40;27.33;0.76;0.87;-8.28;2.94
7.19;0.76;-0.87;-3.16;-13.07;-3.48
1.63;-21.02;-0.87;-3.16;-5.01;-3.48
-5.66;-0.87;-0.00;2.40;-8.28;-5.88
-2.40;0.76;0.76;5.66;3.05;-5.88
-2.40;-7.30;3.16;5.66;7.84;-12.41
-5.66;-7.30;-1.63;27.44;9.47;-2.72
-1.63;-2.50;-0.00;-0.76;13.50;3.70
2.40;-4.03;-0.87;0.00;13.50;1.31
0.76;3.16;-0.00;4.03;4.68;0.54
-1.63;4.79;3.16;-21.78;1.42;5.34
1.63;4.03;4.79;-3.16;-8.28;5.34
-3.27;30.60;3.16;-3.16;-9.04;-13.94
-2.40;2.40;1.52;-3.16;-13.94;1.31
2.40;0.76;-1.63;-0.76;-8.28;-1.09
2.40;-10.56;0.76;-2.40;-5.01;-1.85
0.76;-0.87;-1.63;22.54;-5.01;-4.36
-1.63;28.10;-3.27;-4.79;-0.98;-6.75
1.63;-28.21;-2.50;-4.03;-0.98;-6.75
7.19;-22.65;-0.87;-3.16;-0.22;-2.72
3.16;29.73;-1.63;-3.16;3.81;-11.54
1.63;-2.50;-0.00;-0.76;17.53;-1.85
0.76;3.16;-1.63;-2.40;3.81;-0.33
-2.40;-0.00;-1.63;0.87;6.21;-2.72
-8.06;-21.78;-1.63;2.40;3.81;-4.36
-1.63;-11.33;-1.63;8.06;15.14;1.31
2.40;2.40;0.76;10.45;16.77;1.31
1.63;4.79;2.40;5.66;7.84;6.97
1.63;-3.27;-1.63;4.90;-3.38;0.54
-6.43;-2.50;0.76;4.90;-17.10;1.31
-8.06;30.60;0.76;-0.76;-1.85;1.31
-1.63;3.16;3.92;-12.85;-20.36;4.57
0.76;4.03;6.43;-4.79;-13.94;-5.88
2.40;-12.09;3.16;-4.79;-3.38;1.31
2.40;0.76;0.76;-7.19;-3.38;1.31
2.40;0.76;-25.81;-8.06;-6.64;1.31
2.40;-4.03;2.40;-4.03;-5.01;5.34
7.19;3.16;0.76;2.40;-21.13;1.31
0.76;-3.27;-1.63;-0.76;3.81;-12.41
-4.90;-0.00;-2.50;-15.25;1.42;-13.18
-2.40;-0.87;-1.63;4.03;6.21;-11.54
-4.90;-0.87;0.76;-0.76;9.47;-6.75
-4.90;2.40;-0.87;2.40;17.53;-8.39
-0.00;-5.66;-0.87;7.30;21.56;-13.94
-6.43;-31.47;-1.63;4.90;11.87;-6.75
-0.00;-5.66;-0.87;6.43;2.18;1.31
2.40;4.03;0.76;-5.66;-12.31;8.60
8.06;-30.71;-1.63;-3.16;-30.06;6.21
8.06;-16.12;3.16;3.27;-22.00;2.18
4.03;-12.96;2.40;4.03;-22.76;24.72
7.19;4.79;-0.87;1.63;-4.25;6.21
-1.63;20.04;3.16;0.87;-16.33;11.76
1.63;4.79;2.40;-8.82;-6.64;6.21
1.63;-3.27;-0.87;-12.09;-3.38;13.39
3.16;-3.27;0.76;-13.72;19.93;11.00
0.76;-28.21;-2.50;0.87;23.96;-14.81
0.76;-2.50;-0.00;-3.16;17.53;1.31
-1.63;2.40;-1.63;-2.40;11.11;22.32
2.40;-3.27;-1.63;0.87;3.81;-4.36
0.76;-7.30;-1.63;9.69;-0.98;-4.36
-1.63;-2.50;-5.66;10.45;3.81;-9.15
-2.40;2.40;-1.63;10.45;6.21;-7.51
-4.90;0.76;-1.63;45.08;24.83;-12.41
-4.90;4.79;-1.63;1.63;5.44;-10.78
0.76;-25.81;-0.87;4.90;-4.25;-7.51
-0.87;13.61;-0.00;9.69;27.99;-5.12
-5.66;-0.87;-1.63;-4.79;-5.01;-0.33
-0.00;0.76;0.76;35.50;-14.70;2.94
6.43;3.16;2.40;1.63;-21.13;15.79
22.54;4.79;3.16;-0.76;-22.76;-9.91
2.40;4.79;-0.87;-3.16;-22.00;3.70
-0.87;2.40;-11.33;-3.16;-22.76;5.34
2.40;16.88;3.16;-4.79;-6.64;1.31
-4.90;-2.50;-0.00;-3.16;7.84;0.54
-2.40;-4.03;0.76;1.63;-6.64;0.54
-4.90;25.70;-1.63;-4.03;3.81;1.31
-3.27;-4.03;-1.63;-4.79;2.18;1.31
-4.03;24.94;-1.63;-4.03;0.65;-1.09
-1.63;-25.81;-2.50;15.35;1.42;-3.48
-2.40;3.16;-3.27;8.06;3.05;-9.91
-0.87;2.40;-2.50;-2.40;-10.67;-22.00
0.76;-0.00;-1.63;0.00;-4.25;-1.09
-0.00;2.40;-1.63;-2.40;-6.64;-1.09
1.63;3.16;-1.63;2.40;-0.22;-6.75
-6.43;-5.66;-1.63;5.66;5.44;-4.36
-2.40;4.79;-1.63;9.69;8.71;11.76
0.76;-0.00;0.76;-21.78;15.90;3.70
3.16;-1.63;2.40;6.43;11.87;-13.18
2.40;-8.06;3.16;7.30;10.24;2.94
2.40;-2.50;-0.87;29.84;9.47;9.37
3.16;0.76;-0.00;-24.94;3.81;12.63
3.16;0.76;-0.00;0.87;3.81;5.34
1.63;2.40;5.55;6.43;3.81;6.97
3.16;4.03;-0.00;-1.63;-0.22;3.70
2.40;4.03;-0.00;-2.40;-0.98;6.97
3.16;-2.50;-0.00;-2.40;-1.85;15.03
0.76;1.52;0.76;-4.03;-2.61;-7.51
1.63;4.79;0.76;-3.16;-5.88;-2.72
0.76;-3.27;-4.03;-3.16;-5.01;1.31
-0.00;-8.93;-1.63;-3.16;-5.01;-5.88
2.40;-0.87;-4.03;-4.79;-7.41;-3.48
-4.90;2.40;-2.50;0.87;-0.22;-3.48
-2.40;2.40;-1.63;0.87;1.42;-1.09
0.76;-26.68;-1.63;1.63;3.05;-5.88
0.76;4.79;-0.87;2.40;4.68;1.31
0.76;-20.15;-0.87;1.63;20.80;1.31
2.40;-0.00;-0.87;-2.40;3.81;8.60
5.66;-0.87;0.76;1.63;2.18;5.34
1.63;1.52;3.16;-1.63;1.42;-0.33
-4.90;0.76;-0.00;-2.40;-6.64;-1.09
-1.63;4.79;16.88;-2.40;-0.98;26.24
-3.27;4.03;-0.87;-3.16;11.87;-0.33
-2.40;-0.87;3.92;-3.16;-5.88;-0.33
2.40;-0.00;-0.00;-2.40;-5.01;2.18
2.40;34.63;-0.87;-30.60;-1.85;-1.09
2.40;-0.00;-5.66;0.00;2.18;-3.48
0.76;-29.84;-2.50;5.66;-0.22;3.70
4.79;4.03;-1.63;27.44;-4.25;1.31
-0.00;2.40;-1.63;-2.40;0.65;-4.36
1.63;-0.00;-2.50;-2.40;3.81;1.31
2.40;-0.87;-1.63;1.63;11.87;2.94
2.40;-1.63;-1.63;-3.16;12.74;-23.63
2.40;4.79;-1.63;9.69;19.17;1.31
0.76;0.76;2.40;9.69;16.77;-2.72
1.63;-4.90;2.40;5.66;19.17;0.54
1.63;-0.87;-0.00;5.66;9.47;-1.09
2.40;-0.00;1.52;7.30;-8.28;-4.36
1.63;-23.41;2.40;-2.40;-22.00;-1.09
-7.30;-0.00;0.76;0.87;-26.03;-5.88
-4.90;4.79;2.40;-7.19;-22.00;14.27
-4.90;-0.00;0.76;-8.82;-19.49;4.57
-1.63;-3.27;0.76;-4.03;-13.07;9.37
7.19;0.76;-22.65;-3.16;-7.41;10.24
0.76;-4.03;0.76;-4.79;-0.22;1.31
-12.09;-0.87;-0.87;-2.40;-0.22;0.54
-1.63;4.79;-2.50;-1.63;3.81;-1.09
-2.40;16.88;-1.63;0.87;6.21;-2.72
1.63;4.03;-1.63;2.40;28.86;-24.50
3.16;-0.00;-4.03;8.93;3.81;-4.36
4.79;-25.05;-3.27;6.43;-3.38;-2.72
2.40;4.79;0.76;5.66;-8.28;6.97
2.40;-3.27;-0.87;-0.76;-14.70;2.18
4.03;-0.87;-1.63;8.93;-4.25;2.18
2.40;-2.50;-1.63;0.00;5.44;-9.15
1.63;-2.50;-2.50;-3.16;6.21;1.31
2.40;1.52;-0.87;-5.66;15.90;-0.33
-3.27;2.40;-0.00;-3.16;25.59;-1.85
-3.27;3.16;1.52;0.87;21.56;-0.33
-2.40;0.76;2.40;4.03;15.90;2.18
-0.00;0.76;-0.00;8.93;7.84;-19.60
0.76;0.76;-1.63;8.93;-1.85;-6.75
-3.27;-9.69;3.92;7.30;-17.97;2.94
-1.63;4.79;3.92;-4.03;-26.79;2.94
3.16;2.40;3.16;-7.19;-22.76;2.18
2.40;-0.00;2.40;-1.63;-35.61;23.85
-1.63;-24.18;-2.50;-3.16;-29.19;-1.85
-1.63;1.52;-4.03;1.63;-17.97;-2.72
-8.06;1.52;-2.50;2.40;3.05;-4.36
0.76;-5.66;-1.63;8.06;12.74;-0.33
2.40;-2.50;-0.87;6.43;16.77;6.21
6.43;-4.03;-1.63;4.03;15.14;-1.85
6.43;-9.69;0.76;-7.19;16.77;6.97
4.03;0.76;1.52;-18.51;11.11;-1.09
2.40;30.60;-1.63;-12.09;2.18;-5.88
4.79;-2.50;0.76;-2.40;7.84;15.79
6.43;26.57;-0.00;-3.16;3.81;-3.48
-0.00;-3.27;2.40;0.87;-3.38;-24.50
-5.66;-0.87;0.76;14.48;14.27;1.31
-0.00;-2.50;-0.87;7.30;3.05;1.31
-1.63;0.76;2.40;8.06;3.81;39.20
-1.63;9.58;-0.87;9.69;3.81;2.18
-4.90;2.40;-0.87;8.06;3.81;2.18
-8.93;-5.66;0.76;6.43;3.81;2.18
-8.93;3.16;0.76;-2.40;1.42;1.31
-4.90;29.73;-6.53;-4.79;2.18;11.00
1.63;-23.41;-1.63;-5.66;1.42;-13.18
2.40;-0.87;-1.63;-0.76;-0.22;-6.75
1.63;-16.99;-0.87;-1.63;-4.25;-33.32
-1.63;30.60;-1.63;0.87;-4.25;-2.72
7.19;-2.50;-1.63;0.00;-6.64;2.18
15.25;1.52;-0.87;-2.40;-11.43;1.31
8.06;-8.93;-2.50;-4.03;-15.46;2.94
0.76;-6.53;-1.63;0.87;-9.91;-2.72
-1.63;-3.27;0.76;-1.63;-3.38;-18.84
1.63;4.79;0.76;-3.16;-0.22;-1.09
0.76;-2.50;-0.87;9.69;4.68;1.31
3.16;2.40;0.76;-1.63;-0.98;-7.51
-1.63;-20.15;-1.63;-2.40;-0.98;-5.88
2.40;1.52;3.92;-21.78;-0.98;0.54
2.40;0.76;0.76;2.40;-0.22;0.54
-1.63;0.76;0.76;-1.63;-0.22;1.31
-0.00;2.40;-0.00;-25.81;-1.85;1.31
-1.63;2.40;-1.63;-1.63;-0.98;26.24
6.43;42.69;2.40;-1.63;3.81;12.63
12.09;2.40;2.40;1.63;3.81;1.31
-5.66;9.58;1.52;-0.76;4.68;-9.15
-4.90;-0.00;-5.66;-3.16;5.44;-2.72
-3.27;4.03;-1.63;8.06;15.90;-2.72
-3.27;-0.00;-2.50;3.27;12.74;-5.88
2.40;-3.27;-2.50;4.90;18.30;-0.33
-1.63;-11.33;-3.27;5.66;27.22;0.54
-4.90;-0.00;-1.63;1.63;16.77;-23.63
-1.63;-0.00;-0.00;-4.03;3.05;1.31
4.79;1.52;-1.63;4.90;-9.91;-0.33
4.03;-2.50;-2.50;-3.16;-22.00;-1.09
4.79;-2.50;-0.00;-4.03;-27.55;-6.75
-3.27;-2.50;-0.87;-3.16;-34.85;2.94
-6.43;-16.99;-1.63;-16.12;-29.19;1.31
-0.00;-0.00;0.76;15.35;-23.52;0.54
-1.63;16.88;2.40;-3.16;-9.04;5.34
2.40;4.79;4.79;-3.16;3.81;39.20
2.40;-4.03;6.43;-30.60;7.84;1.31
0.76;4.79;0.76;-2.40;11.87;4.57
-0.87;39.42;-1.63;-2.40;16.77;6.97
0.76;-2.50;2.40;0.87;21.56;1.31
1.63;15.25;-0.87;-19.28;15.90;1.31
1.63;-0.00;-1.63;-3.16;11.87;-0.33
-1.63;-31.47;-3.27;-2.40;15.90;0.54
-0.87;-0.87;-2.50;-1.63;7.84;-7.51
1.63;17.64;-1.63;-0.76;0.65;-7.51
1.63;-4.03;-1.63;-2.40;-3.38;-5.88
-1.63;-0.87;-1.63;4.03;-12.31;-3.48
-0.00;-4.03;-0.00;-0.76;-16.33;-0.33
4.79;-2.50;-1.63;5.66;2.18;2.94
4.03;0.76;-1.63;7.30;7.84;6.21
4.79;3.16;-0.00;9.69;6.21;2.94
3.16;3.16;-0.00;9.69;2.18;3.70
1.63;-5.66;3.16;9.69;2.18;5.34
3.16;-1.63;-3.27;-5.66;-3.38;-5.88
-3.27;2.40;3.92;-7.19;-3.38;-24.50
-9.69;-19.38;-0.87;-10.45;-6.64;-2.72
-9.69;-0.00;2.40;-10.45;5.44;-2.72
-2.40;-2.50;0.76;-4.79;-3.38;1.31
-3.27;4.79;-0.00;4.90;-6.64;32.78
4.79;-7.30;1.52;8.06;-4.25;19.82
8.06;-0.00;2.40;-1.63;0.65;5.34
1.63;0.76;-1.63;-8.06;3.81;23.85
-4.03;0.76;-4.03;-10.45;1.42;-3.48
2.40;4.79;-2.50;-8.82;-11.43;-6.75
-1.63;-5.66;-6.53;-8.06;-14.70;-9.15
1.63;3.16;-2.50;-24.18;-17.10;-7.51
2.40;3.16;-0.87;-1.63;-17.97;-3.48
-1.63;0.76;-0.87;-1.63;-22.00;4.57
3.16;-0.87;-0.87;1.63;5.44;3.70
9.69;4.03;0.76;4.03;4.68;-24.50
2.40;2.40;-0.87;5.66;15.90;-0.33
2.40;-31.47;-3.27;4.90;17.53;-1.85
-2.40;-2.50;0.76;7.30;19.17;2.18
-2.40;-2.50;-1.63;1.63;17.53;0.54
-4.90;2.40;-1.63;2.40;13.50;2.94
-4.90;39.42;3.92;4.03;6.21;8.60
-7.30;4.79;0.76;7.30;6.21;-7.51
-3.27;26.57;1.52;8.06;3.81;6.97
-0.00;0.76;8.82;-2.40;3.81;6.97
-4.90;2.40;3.16;-2.40;0.65;2.18
-2.40;-7.30;-1.63;-3.16;-22.00;0.54
-2.40;-4.90;-1.63;-4.79;-3.38;-3.48
2.40;2.40;-1.63;-5.66;-16.33;-2.72
2.40;3.16;-1.63;-3.16;-8.28;-1.09
-0.00;3.16;-2.50;-0.76;-10.67;-8.39
-0.00;-0.00;-27.44;-4.79;-11.43;-5.88
-4.03;-3.27;-1.63;9.69;-14.70;-7.51
-2.40;-26.68;-1.63;9.69;-10.67;-5.88
-4.90;-2.50;-1.63;4.90;7.84;-2.72
-0.00;5.55;-1.63;-4.79;1.42;-3.48
6.43;17.64;2.40;-4.79;1.42;-11.54
9.69;3.16;3.16;-11.22;3.81;6.97
24.18;4.03;0.76;-7.19;4.68;5.34
13.72;-28.21;-1.63;-14.48;7.08;2.94
2.40;0.76;-0.87;-0.76;1.42;6.21
-1.63;3.16;5.55;5.66;4.68;4.57
-8.06;-0.00;0.76;2.40;3.81;1.31
-12.09;-0.00;3.16;6.43;7.84;-2.72
-8.93;-5.66;10.45;-0.76;4.68;0.54
-6.43;31.36;-0.87;8.06;3.81;-5.88
-3.27;33.00;-16.12;1.63;1.42;2.18
-4.90;-4.03;-1.63;-0.76;-5.01;-1.09
-4.90;-0.87;-2.50;-4.03;-9.91;-1.09
-0.00;-2.50;-1.63;4.90;-6.64;1.31
6.43;3.16;-1.63;1.63;-1.85;-5.88
2.40;-28.21;0.76;5.66;7.84;2.18
3.16;1.52;-4.03;6.43;9.47;2.18
-3.27;2.40;-11.33;-0.76;12.74;-4.36
-1.63;20.91;7.19;1.63;6.21;-5.88
-4.90;2.40;20.04;2.40;3.81;-5.88
-2.40;16.88;-1.63;7.30;-0.22;-1.85
2.40;-0.00;1.52;-1.63;-7.41;-1.85
0.76;0.76;2.40;-3.16;-9.91;13.39
3.16;-0.87;2.40;2.40;-14.70;0.54
-3.27;-0.87;2.40;-7.19;-22.00;0.54
1.63;20.91;6.43;-2.40;-8.28;6.21
4.79;4.79;5.55;-3.16;-5.01;6.97
2.40;-0.00;-1.63;-7.19;-0.22;2.18
-0.00;3.16;-0.87;-6.43;3.81;1.31
-4.90;4.03;-1.63;-4.03;6.21;-4.36
1.63;13.61;-0.00;-5.66;1.42;-7.51
1.63;24.94;-1.63;-0.76;9.47;-7.51
-0.00;3.16;-1.63;-3.16;7.08;-0.33
2.40;-0.87;-1.63;-5.66;5.44;-4.36
-0.00;-5.66;-1.63;-3.16;3.81;-22.87
1.63;-17.75;-1.63;-1.63;-0.22;2.18
4.03;11.98;-15.35;0.87;-9.91;9.37
3.16;0.76;-1.63;2.40;-9.04;1.31
-0.00;4.79;0.76;-0.76;-7.41;-2.72
4.03;-2.50;-0.87;2.40;-3.38;0.54
9.69;4.03;3.92;-0.76;-1.85;1.31
3.16;4.03;3.16;0.00;1.42;-3.48
-1.63;-0.87;-0.00;-3.16;3.81;0.54
-5.66;0.76;-1.63;-2.40;6.21;2.18
1.63;4.03;-1.63;1.63;7.08;6.97
-1.63;-24.18;2.40;1.63;2.18;1.31
-6.43;-0.87;-0.00;0.87;3.81;1.31
-8.06;28.97;0.76;0.87;3.81;1.31
-3.27;-5.66;2.40;2.40;1.42;1.31
2.40;28.97;1.52;1.63;3.05;3.70
7.19;-8.06;-2.50;0.87;3.05;2.18
1.63;-0.87;2.40;-7.19;3.81;0.54
2.40;2.40;-0.87;0.87;6.21;-3.48
1.63;-3.27;-0.87;-2.40;8.71;-5.88
-0.00;-0.87;-1.63;18.51;17.53;-2.72
2.40;2.40;-0.00;-2.40;27.99;6.21
14.48;20.91;0.76;2.40;5.44;2.18
2.40;-0.00;-0.87;0.87;2.18;-1.85
0.76;23.30;0.76;8.06;-6.64;-5.88
2.40;3.16;3.92;28.21;-8.28;-3.48
-0.00;17.64;-0.87;9.69;-0.22;-2.72
-0.00;-0.00;-0.00;10.45;3.05;-2.72
2.40;-5.66;3.16;9.69;-7.41;-2.72
3.16;3.16;-0.87;0.87;-5.01;1.31
7.19;4.79;-0.87;-4.03;-11.43;-0.33
-0.00;-7.30;-5.66;-10.45;-22.00;-0.33
-5.66;3.16;-0.87;-17.75;-26.03;-5.88
-6.43;-2.50;-0.00;-16.12;-34.85;1.31
-5.66;-4.90;-1.63;-16.12;-35.61;-0.33
-6.43;-3.27;3.16;-14.48;-34.85;1.31
-1.63;9.58;-1.63;-16.12;-22.00;1.31
-0.00;1.52;-2.50;-7.19;-6.64;-3.48
2.40;-3.27;-4.03;-7.19;3.81;-0.33
1.63;-4.03;-2.50;8.93;15.90;-5.88
2.40;-3.27;-2.50;4.03;38.44;-2.72
2.40;2.40;-2.50;7.30;3.81;-2.72
-0.00;-2.50;-1.63;-1.63;27.22;-9.15
-1.63;-5.66;-1.63;-0.76;16.77;-5.88
-0.00;-2.50;-0.00;4.90;3.81;-5.88
-2.40;33.00;-3.27;-4.03;9.47;-22.87
-0.00;-7.30;0.76;-4.03;3.05;-7.51
2.40;2.40;0.76;0.87;-4.25;2.94
5.66;-0.00;20.91;-2.40;-9.04;2.18
10.45;2.40;2.40;-16.12;-5.88;2.18
1.63;30.60;0.76;-23.30;-8.28;1.31
-2.40;-3.27;5.55;4.03;-0.98;-4.36
1.63;13.61;32.13;7.30;4.68;3.70
-5.66;-21.02;-0.87;-2.40;18.30;15.03
2.40;-31.47;1.52;5.66;30.38;8.60
1.63;0.76;-0.00;2.40;33.65;2.18
2.40;-16.12;-1.63;-1.63;15.14;1.31
0.76;-4.03;-0.87;-3.16;3.05;-3.48
-0.00;36.15;-3.27;0.87;-9.91;1.31
4.03;-0.87;-4.03;-7.19;-11.43;1.31
4.79;2.40;-1.63;-27.33;-23.52;-3.48
1.63;18.51;-0.00;0.87;-24.39;-4.36
0.76;4.03;-1.63;0.87;-22.00;-1.09
-2.40;-2.50;-1.63;-1.63;-14.70;-4.36
-2.40;-0.87;-2.50;-0.76;-26.03;-9.91
-11.33;4.79;2.40;-3.16;-6.64;-9.91
-6.43;2.40;-0.00;-2.40;-2.61;-1.85
-1.63;23.30;2.40;-4.03;3.05;-1.85
0.76;-2.50;2.40;0.87;4.68;-2.72
1.63;-4.03;7.19;8.06;9.47;1.31
2.40;-0.00;-1.63;13.72;10.24;6.97
6.43;-6.53;10.45;10.45;12.74;26.24
14.48;2.40;-4.03;-0.76;13.50;27.12
-0.00;-2.50;0.76;-5.66;6.21;6.21
-0.00;2.40;-1.63;-13.72;3.81;2.94
2.40;-16.99;-1.63;-15.25;3.81;6.97
-1.63;-30.71;-1.63;-11.22;7.08;1.31
2.40;-8.93;-1.63;-12.09;4.68;1.31
8.06;4.03;-1.63;-5.66;3.05;-20.47
-0.00;-5.66;-6.53;-2.40;0.65;-9.15
-4.90;0.76;-2.50;-0.76;-7.41;-9.91
-4.90;0.76;-4.03;11.33;-5.01;-9.15
0.76;-3.27;-1.63;7.30;-8.28;-6.75
-3.27;-0.87;-0.87;4.90;-9.04;-6.75
-2.40;-8.06;-1.63;0.87;-10.67;-6.75
2.40;0.76;-0.00;9.69;-9.91;-0.33
-2.40;-0.87;0.76;0.87;-13.07;19.06
-0.00;-2.50;0.76;-0.76;-9.04;0.54
-0.00;-2.50;2.40;-2.40;-11.43;1.31
-8.06;-0.87;6.43;15.35;-8.28;4.57
-2.40;-21.02;0.76;-4.03;-9.04;6.97
-8.06;3.16;-0.00;-1.63;3.05;3.70
-3.27;-5.66;5.55;0.87;3.81;15.03
-2.40;-3.27;-0.00;-3.16;15.14;2.18
3.16;-8.06;-3.27;-5.66;12.74;5.34
16.88;-2.50;-0.00;-27.33;8.71;-2.72
13.72;4.03;0.76;-8.06;12.74;1.31
7.19;-0.87;-1.63;-29.84;11.87;-1.85
2.40;4.03;-0.00;-1.63;8.71;-9.91
2.40;3.16;-1.63;4.03;7.84;-5.12
2.40;4.03;-2.50;4.90;12.74;0.54
2.40;4.03;-0.00;1.63;7.84;2.18
-0.00;1.52;-1.63;-0.76;7.84;3.70
-1.63;-19.38;-1.63;1.63;13.50;1.31
2.40;2.40;-0.87;-2.40;-0.22;1.31
-2.40;0.76;1.52;-3.16;6.21;-1.09
0.76;1.52;-12.09;-0.76;3.81;2.18
2.40;4.03;-1.63;2.40;4.68;0.54
-8.06;-21.02;0.76;4.03;4.68;-1.09
-5.66;2.40;20.91;1.63;-0.98;9.37
-6.43;2.40;2.40;-1.63;-9.04;1.31
-8.06;-3.27;6.43;1.63;-11.43;-0.33
1.63;36.15;-0.87;1.63;-17.97;1.31
-1.63;-0.00;3.16;-4.03;-21.13;-0.33
0.76;-4.03;-1.63;7.30;-21.13;1.31
-2.40;-5.66;-2.50;-11.22;-19.49;0.54
1.63;-0.87;-12.09;-4.03;-11.43;-2.72
0.76;-3.27;-0.87;-26.57;-14.70;-4.36
2.40;26.57;-0.00;-4.03;-6.64;-2.72
6.43;0.76;-1.63;-11.22;-0.22;1.31
2.40;-3.27;-1.63;0.00;5.44;-3.48
0.76;0.76;-2.50;4.03;11.87;-1.09
1.63;-4.03;-3.27;6.43;19.17;-35.72
1.63;-5.66;-1.63;7.30;41.71;0.54
2.40;0.76;2.40;8.06;17.53;0.54
1.63;-0.00;1.52;2.40;6.21;1.31
-0.00;1.52;-1.63;-1.63;-19.49;-2.72
0.76;-0.87;-0.00;-3.16;-9.91;1.31
1.63;3.16;-0.87;-8.06;-9.04;-6.75
4.79;2.40;0.76;-6.43;-11.43;9.37
2.40;4.03;2.40;-4.79;-16.33;3.70
2.40;2.40;5.55;8.93;-8.28;2.94
-1.63;-3.27;12.85;-0.76;-6.64;-19.60
2.40;-0.00;3.92;13.72;3.05;4.57
-4.90;-0.87;3.16;0.87;11.87;0.54
-0.87;-3.27;-0.87;-3.16;11.11;-0.33
4.79;3.16;-1.63;-8.06;14.27;1.31
2.40;1.52;-1.63;-3.16;-1.85;0.54
2.40;4.03;-1.63;18.51;17.53;1.31
0.76;-0.00;-1.63;4.90;6.21;27.88
4.79;-11.33;-0.00;0.00;-9.04;2.18
-4.90;-0.87;-0.87;-27.33;-19.49;-6.75
-7.30;-0.00;0.76;-2.40;-26.03;-3.48
-3.27;4.03;-1.63;1.63;-34.85;-2.72
-6.43;-2.50;2.40;1.63;-9.91;-0.33
-3.27;-0.00;-1.63;-8.06;3.81;-2.72
-0.87;3.16;-2.50;-2.40;15.14;-4.36
-0.00;3.16;0.76;1.63;16.77;-0.33
3.16;4.79;-1.63;9.69;22.32;1.31
13.72;3.16;1.52;8.06;18.30;9.37
4.79;21.67;2.40;5.66;6.21;3.70
-8.06;-0.87;3.92;-4.03;-5.01;1.31
-4.90;-31.47;-0.87;-5.66;-7.41;1.31
-5.66;-0.87;-7.30;-9.69;-9.91;2.18
-4.90;2.40;-0.00;12.09;-34.09;1.31
-1.63;-0.00;0.76;-3.16;-11.43;0.54
8.06;-0.00;-1.63;-2.40;-13.07;1.31
14.48;0.76;-1.63;-3.16;-13.94;-2.72
2.40;1.52;-1.63;-0.76;-9.91;-6.75
-0.00;2.40;-5.66;0.87;-3.38;-6.75
1.63;-2.50;-3.27;6.43;3.81;-0.33
-2.40;-5.66;-1.63;5.66;3.05;-4.36
-1.63;-2.50;-1.63;4.90;5.44;1.31
-1.63;-5.66;6.43;8.06;3.81;1.31
2.40;0.76;-1.63;-12.09;3.81;2.18
-2.40;-3.27;-0.87;0.00;3.81;1.31
-1.63;4.79;3.16;0.87;4.68;-2.72
-1.63;3.16;-4.03;-2.40;5.44;-1.09
1.63;4.03;3.92;1.63;3.81;5.34
4.03;0.76;6.43;24.94;3.81;3.70
3.16;0.76;-0.87;-3.16;0.65;3.70
-0.00;-4.03;2.40;24.94;-3.38;5.34
1.63;-2.50;4.79;-2.40;-5.01;6.21
1.63;-2.50;-0.87;0.87;-9.04;3.70
-4.90;-3.27;-6.53;0.87;-8.28;-17.21
-4.03;-3.27;-0.87;7.30;-9.91;1.31
-3.27;18.51;3.92;8.06;-7.41;-0.33
-0.87;1.52;-1.63;7.30;0.65;1.31
0.76;4.79;0.76;-1.63;-0.22;-1.09
2.40;0.76;-2.50;-12.09;-3.38;-5.88
-1.63;0.76;-5.66;-15.25;-0.22;-1.09
0.76;-0.87;-1.63;-16.12;-0.98;-5.88
0.76;2.40;-3.27;-4.03;-0.22;-2.72
1.63;2.40;-1.63;-3.16;3.81;-4.36
-0.00;-5.66;-5.66;-3.16;10.24;-3.48
-0.00;0.76;-1.63;4.90;15.90;-12.41
2.40;-4.03;-1.63;2.40;18.30;-1.09
2.40;0.76;0.76;8.06;31.25;-1.09
2.40;-0.00;2.40;10.45;8.71;0.54
2.40;1.52;1.52;8.06;-0.22;2.94
4.03;-5.66;-0.87;2.40;-9.04;31.91
4.03;0.76;5.55;1.63;-16.33;3.70
2.40;-0.87;-1.63;0.87;-19.49;5.34
2.40;-8.06;5.55;1.63;-19.49;8.60
1.63;-0.00;3.92;-1.63;-9.91;8.60
-3.27;-2.50;0.76;0.00;-8.28;-1.09
-4.90;-22.65;-0.87;-5.66;3.81;-1.09
-5.66;-0.87;16.88;-3.16;6.21;-2.72
-4.90;-10.56;-9.69;0.87;3.81;-12.41
-6.43;30.60;-1.63;-0.76;4.68;-12.41
-1.63;0.76;-2.50;-1.63;6.21;-3.48
1.63;28.97;-0.00;-0.76;5.44;-2.72
0.76;2.40;2.40;2.40;2.18;-2.72
4.03;4.79;-1.63;1.63;-0.22;-8.39
1.63;-2.50;-1.63;-0.76;-3.38;-5.88
-1.63;-0.00;-1.63;-4.79;-4.25;-1.09
6.43;0.76;-0.00;-3.16;-0.98;11.00
16.12;4.03;-1.63;5.66;2.18;16.66
4.03;-0.87;-13.72;-3.16;5.44;-22.00
-0.00;0.76;-0.00;0.87;3.81;25.48
2.40;-3.27;2.40;-1.63;14.27;15.03
2.40;-4.90;2.40;0.87;16.77;-18.84
-10.45;-2.50;0.76;2.40;19.93;26.24
-12.96;-5.66;0.76;-0.76;23.96;1.31
-8.93;-0.87;-3.27;-0.76;-19.49;1.31
-5.66;-2.50;-0.00;0.87;-7.41;29.51
-0.00;1.52;-2.50;10.45;-38.88;-5.88
-0.87;3.16;3.16;-4.79;-38.11;-9.15
-0.00;-2.50;-0.87;-4.79;-25.16;-13.18
-1.63;-3.27;-0.00;-8.82;-45.30;-11.54
3.16;4.03;-2.50;-2.40;-34.09;-7.51
4.79;-0.00;-2.50;-4.03;-17.97;-7.51
2.40;-3.27;-25.81;-1.63;-3.38;-6.75
2.40;-17.75;-1.63;1.63;11.87;-5.88
1.63;-0.00;-4.90;4.03;27.99;3.70
2.40;-21.02;-1.63;26.57;27.22;-0.33
2.40;-2.50;0.76;8.06;29.62;2.18
0.76;-0.00;2.40;0.87;30.38;5.34
2.40;-3.27;0.76;44.32;27.22;6.97
-1.63;4.79;-20.15;8.06;22.32;5.34
0.76;-0.00;3.16;-19.28;19.17;5.34
0.76;4.79;-16.12;7.30;14.27;2.18
7.19;3.16;2.40;0.87;-0.22;31.15
4.03;-0.87;0.76;-3.16;-17.10;4.57
-3.27;2.40;0.76;-12.09;-22.00;-1.09
-4.90;0.76;3.16;-11.22;-22.76;1.31
1.63;0.76;0.76;-6.43;-21.13;0.54
6.43;-4.03;-0.00;-3.16;-3.38;2.18
7.19;4.79;-1.63;4.03;3.81;-0.33
-1.63;-0.00;-18.62;3.27;2.18;-1.09
1.63;-5.66;-1.63;-27.33;-7.41;-7.51
-6.43;-3.27;-1.63;11.33;-11.43;-9.15
-6.43;-3.27;-1.63;-3.16;-14.70;-3.48
-2.40;2.40;-1.63;-4.03;-13.94;-5.88
-0.00;-5.66;-2.50;-7.19;-11.43;-6.75
0.76;0.76;-1.63;-13.72;-5.88;-2.72
-0.00;-4.03;-0.00;5.66;-0.22;-3.48
-1.63;0.76;-0.00;8.06;-24.39;-2.72
-0.00;0.76;0.76;1.63;3.81;-1.09
0.76;2.40;-1.63;-4.03;3.81;4.57
-4.90;1.52;-0.00;-13.72;3.81;6.21
-1.63;-4.03;6.43;-11.22;3.81;2.18
1.63;-0.00;-0.87;-7.19;-0.98;8.60
-4.90;-0.87;5.55;-4.79;3.05;3.70
0.76;0.76;0.76;4.90;3.81;2.18
0.76;-6.53;-0.00;0.87;3.05;1.31
2.40;-2.50;-2.50;0.87;3.81;-1.09
2.40;-4.03;-26.68;4.90;4.68;-3.48
1.63;-2.50;-0.87;8.93;3.81;-2.72
2.40;4.03;-0.87;8.93;-0.22;-25.26
0.76;-0.00;-1.63;14.48;1.42;-1.09
-1.63;2.40;-3.27;-12.85;-19.49;-3.48
-0.00;2.40;-1.63;-1.63;3.81;-7.51
-3.27;-2.50;-0.00;1.63;-3.38;-9.15
-3.27;31.36;-2.50;2.40;1.42;-0.33
-1.63;4.03;-1.63;-3.16;-8.28;-1.09
-1.63;2.40;0.76;-1.63;3.81;23.09
0.76;-0.87;-0.87;9.69;-20.36;2.18
1.63;0.76;3.92;-4.03;8.71;3.70
0.76;0.76;3.16;-3.16;13.50;2.18
-2.40;-0.87;2.40;-1.63;7.08;3.70
-1.63;26.57;-0.87;-2.40;12.74;8.60
0.76;-0.87;2.40;-6.43;25.59;5.34
2.40;-25.05;6.43;2.40;7.84;6.97
0.76;3.16;-0.00;-3.16;3.05;-7.51
-1.63;2.40;-1.63;-3.16;-4.25;-2.72
0.76;2.40;-0.87;-4.79;-11.43;-4.36
4.79;2.40;-1.63;-5.66;-8.28;3.70
19.28;-8.93;-1.63;-1.63;-38.88;-1.09
11.22;2.40;-3.27;-2.40;-24.39;-11.54
1.63;-3.27;-4.90;-0.76;-17.97;-6.75
-2.40;-28.21;-4.03;1.63;-10.67;-1.09
3.16;-13.72;-1.63;0.87;-0.98;5.34
-5.66;0.76;-0.87;4.90;7.08;1.31
2.40;3.16;-1.63;1.63;9.47;1.31
2.40;-5.66;-0.00;5.66;11.87;5.34
2.40;0.76;0.76;5.66;8.71;1.31
1.63;3.16;-0.87;2.40;-0.22;1.31
-1.63;3.16;-0.87;4.03;15.90;10.24
-3.27;5.55;1.52;9.69;7.84;-10.78
-1.63;3.16;0.76;13.72;6.21;1.31
-8.06;0.76;0.76;9.69;3.05;2.18
-2.40;4.79;3.16;-3.16;2.18;2.94
-3.27;-0.87;3.16;20.15;-0.22;1.31
-0.87;4.79;-0.00;-8.82;2.18;0.54
-3.27;4.79;-1.63;-16.12;3.81;-3.48
-0.00;2.40;10.45;-9.69;-1.85;1.31
-1.63;-26.68;-0.87;10.45;-13.07;-4.36
2.40;-2.50;-1.63;-8.82;-17.10;-1.09
0.76;-2.50;-1.63;-1.63;-13.94;-1.09
-1.63;-25.81;-0.87;2.40;-13.94;0.54
-0.87;-5.66;-1.63;0.87;-20.36;-2.72
-9.69;-6.53;-1.63;5.66;-11.43;-6.75
-1.63;10.45;-1.63;8.06;1.42;-7.51
2.40;1.52;-0.87;7.30;9.47;-1.09
2.40;3.16;-1.63;5.66;16.77;1.31
2.40;23.30;1.52;5.66;18.30;5.34
7.19;4.03;19.28;8.93;18.30;5.34
4.03;3.16;3.92;6.43;15.90;-0.33
1.63;4.79;0.76;-4.03;4.68;8.60
19.28;-0.87;3.16;0.87;-5.01;14.27
4.79;2.40;-0.87;-4.03;-10.67;3.70
-6.43;4.03;-0.87;-8.06;-16.33;0.54
-4.90;-0.87;-0.00;13.72;-12.31;2.18
-8.06;3.16;0.76;-10.45;-9.04;3.70
1.63;-34.74;0.76;-8.06;-1.85;0.54
-1.63;-0.87;-6.53;-6.43;-8.28;-2.72
-6.43;20.91;-2.50;-4.03;-30.82;-9.91
-2.40;26.57;-4.90;-5.66;-1.85;-10.78
-3.27;-0.00;-6.53;9.69;3.81;-4.36
-2.40;-21.02;-1.63;1.63;1.42;-3.48
-3.27;-3.27;-0.87;4.90;3.81;19.06
-1.63;-3.27;-27.44;0.87;7.08;1.31
2.40;0.76;-2.50;0.00;3.81;1.31
4.03;8.82;-0.00;2.40;3.81;-21.24
2.40;18.51;1.52;2.40;3.05;3.70
2.40;-5.66;-19.38;8.93;3.81;8.60
1.63;-0.87;1.52;5.66;3.81;1.31
1.63;1.52;1.52;4.90;-0.22;1.31
-0.00;-0.00;2.40;-2.40;2.18;-0.33
-3.27;-8.93;3.92;-5.66;3.05;-1.09
-8.93;-4.03;-1.63;-7.19;3.81;2.18
0.76;4.03;2.40;-10.45;-0.98;3.70
2.40;5.55;25.70;-3.16;-0.22;6.21
-5.66;-3.27;-0.00;-4.79;-5.01;3.70
1.63;-2.50;-1.63;9.69;-2.61;-1.09
-5.66;-0.00;15.25;-3.16;12.74;15.03
-6.43;30.60;-1.63;-4.03;0.65;-3.48
-2.40;4.79;-2.50;-1.63;-1.85;-12.41
-0.00;1.52;-2.50;2.40;-6.64;-4.36
-2.40;-0.00;-1.63;-3.16;-16.33;-6.75
-2.40;30.60;-1.63;2.40;-17.97;-9.15
3.16;1.52;-0.87;-2.40;-14.70;-4.36
10.45;4.79;-0.87;-3.16;-9.04;10.24
11.22;0.76;-0.00;-0.76;-5.01;4.57
7.19;4.79;-1.63;-0.76;2.18;10.24
4.79;0.76;0.76;8.93;3.81;0.54
1.63;-0.87;2.40;5.66;5.44;-2.72
4.79;-3.27;0.76;4.03;5.44;-13.94
6.43;-0.87;-5.66;0.87;8.71;1.31
-4.90;4.79;7.95;4.90;11.11;0.54
-5.66;-0.87;0.76;-16.12;15.14;2.18
-6.43;-4.90;3.16;9.69;12.74;3.70
-5.66;1.52;-0.87;-3.16;15.14;2.94
-2.40;0.76;18.51;-0.76;12.74;12.63
6.43;1.52;-1.63;-3.16;5.44;11.76
5.66;4.79;-0.87;-7.19;4.68;-0.33
-5.66;2.40;-2.50;-7.19;9.47;-18.84
-4.90;2.40;-2.50;-5.66;8.71;-7.51
-1.63;-2.50;-4.03;-3.16;3.81;-9.15
2.40;4.03;-2.50;36.26;-3.38;-2.72
1.63;4.79;-0.00;-0.76;-13.07;-6.75
-0.00;-0.87;2.40;0.87;-18.73;1.31
-1.63;-2.50;-0.87;5.66;-22.00;-3.48
-0.00;-0.87;-2.50;9.69;-27.55;-9.15
-0.87;-2.50;-1.63;-2.40;-22.00;-6.75
-1.63;-0.00;3.16;-5.66;-22.00;-4.36
-1.63;2.40;-1.63;-1.63;-7.41;-0.33
-0.87;-2.50;0.76;-4.03;3.81;-9.15
-4.90;-0.00;1.52;-5.66;12.74;-23.63
-7.30;4.79;3.92;-0.76;14.27;0.54
-1.63;-0.87;5.55;1.63;19.17;2.94
1.63;-2.50;-0.00;1.63;19.17;9.37
7.19;-2.50;0.76;2.40;15.90;20.69
15.25;-0.00;-0.00;2.40;7.84;5.34
2.40;1.52;-0.87;0.00;3.05;2.18
1.63;1.52;-1.63;0.00;-10.67;0.54
-0.87;-4.90;-3.27;-1.63;-29.19;2.18
0.76;-0.87;-3.27;-28.97;-10.67;-1.85
1.63;4.79;-2.50;-7.19;-10.67;8.60
2.40;-2.50;-0.00;-4.79;-9.04;18.30
-8.06;-1.63;-1.63;-4.03;-5.01;-11.54
-9.69;2.40;-1.63;-4.03;-4.25;-7.51
-11.33;-2.50;-1.63;-3.16;-0.98;-10.78
-4.90;-3.27;0.76;2.40;8.71;-0.33
-0.00;-4.90;21.67;5.66;14.27;1.31
-2.40;-0.00;-0.00;5.66;5.44;1.31
0.76;-2.50;-0.00;9.69;-22.00;-1.09
-2.40;-0.00;0.76;34.63;2.18;1.31
0.76;2.40;-1.63;9.69;-4.25;-16.44
1.63;-2.50;-0.87;1.63;-10.67;9.37
4.79;0.76;3.16;-10.45;-18.73;9.37
-0.00;-3.27;1.52;-7.19;-9.04;6.21
-0.87;-0.00;-0.87;-11.22;-6.64;9.37
-4.03;-2.50;8.82;-11.22;3.81;2.18
4.03;4.79;-0.00;-8.82;3.81;2.18
8.82;4.03;-0.87;-21.78;3.81;1.31
7.19;-0.00;-3.27;-3.16;8.71;-2.72
1.63;0.76;-2.50;-4.03;4.68;-12.41
2.40;-0.00;-1.63;4.90;6.21;-5.88
-4.90;2.40;-21.78;9.69;3.81;-2.72
-1.63;0.76;-1.63;5.66;3.81;-5.88
-1.63;-2.50;-9.69;0.87;-0.98;15.79
1.63;3.16;-1.63;4.03;-0.22;0.54
-0.87;-3.27;-0.87;4.90;-3.38;1.31
-2.40;-0.00;-0.00;9.69;3.05;5.34
0.76;2.40;5.55;-4.03;-5.01;0.54
-2.40;-0.87;-0.00;-3.16;-8.28;-4.36
-6.43;4.03;-0.00;-1.63;-8.28;1.31
-8.93;2.40;-27.44;-0.76;-0.22;-12.41
-10.45;1.52;11.98;-1.63;1.42;1.31
0.76;7.19;6.43;-6.43;5.44;8.60
5.66;2.40;3.92;-1.63;8.71;16.66
3.16;3.16;-0.00;1.63;3.81;2.18
-1.63;3.16;0.76;1.63;3.81;1.31
-7.30;-6.53;3.16;15.35;8.71;0.54
3.16;0.76;-1.63;-0.76;7.08;1.31
8.06;-0.87;-2.50;-4.79;-13.94;2.18
7.19;0.76;-1.63;-23.30;-9.91;6.21
-1.63;1.52;-1.63;4.03;3.81;1.31
2.40;3.16;-1.63;9.69;5.44;-2.72
-0.00;3.16;-1.63;9.69;4.68;-1.85
-1.63;-0.87;-0.87;5.66;14.27;-7.51
0.76;-2.50;-4.90;8.93;16.77;-5.88
-3.27;3.16;-0.87;-0.76;12.74;-7.51
0.76;-0.00;-1.63;-8.06;20.80;2.18
1.63;0.76;-0.00;15.35;7.08;2.18
2.40;4.79;-1.63;-7.19;-5.01;10.24
12.85;0.76;0.76;-5.66;-21.13;11.76
8.06;11.98;2.40;-4.03;-32.45;4.57
4.79;-3.27;0.76;-5.66;-47.70;0.54
1.63;-0.00;11.22;-4.79;-42.91;1.31
-0.87;-6.53;22.54;0.87;-33.21;-9.91
-3.27;0.76;2.40;0.87;-11.43;-1.09
-8.06;0.76;0.76;4.90;7.08;-2.72
-8.93;-5.66;-1.63;6.43;25.59;-6.75
-11.33;-0.00;-1.63;-2.40;22.32;-11.54
-6.43;1.52;-1.63;9.69;27.22;-3.48
-1.63;2.40;-0.87;0.87;18.30;-6.75
2.40;-25.05;-1.63;15.35;16.77;-0.33
2.40;4.79;-1.63;8.06;18.30;0.54
2.40;7.19;-1.63;4.03;15.90;0.54
2.40;3.16;-1.63;8.93;7.84;-6.75
1.63;-3.27;-0.87;-28.21;1.42;-3.48
-0.87;-2.50;-0.87;-8.82;-6.64;-1.09
1.63;0.76;3.16;-3.16;-5.01;-0.33
0.76;-0.00;-1.63;-1.63;-21.13;-5.88
-6.43;4.79;0.76;1.63;-10.67;-9.15
-3.27;3.16;1.52;-4.03;-13.07;0.54
2.40;3.16;-10.56;-2.40;-13.07;1.31
2.40;-0.87;1.52;-3.16;-17.97;9.37
0.76;0.76;-1.63;-8.06;-10.67;10.24
-0.87;-2.50;3.16;0.00;-5.01;11.76
4.79;-3.27;-0.87;0.87;3.81;3.70
0.76;-3.27;-0.87;-5.66;15.14;11.76
15.25;1.52;10.45;1.63;11.11;11.76
3.16;2.40;-3.27;5.66;5.44;-23.63
0.76;-5.66;-3.27;4.90;7.08;-0.33
-1.63;-2.50;-1.63;-0.76;3.81;3.70
-6.43;-5.66;-1.63;2.40;3.05;-9.91
-1.63;0.76;-1.63;1.63;6.21;-38.99
-0.87;0.76;-1.63;-18.51;3.81;-9.91
0.76;2.40;0.76;2.40;4.68;-2.72
2.40;-0.00;-20.15;2.40;3.81;-5.88
1.63;4.03;3.92;6.43;-9.91;-0.33
-2.40;-0.87;-1.63;-8.82;-21.13;0.54
-3.27;-2.50;0.76;-7.19;-27.55;1.31
0.76;2.40;0.76;-4.79;-27.55;1.31
-0.00;-5.66;-0.00;-20.91;-22.00;3.70
-2.40;0.76;-1.63;2.40;3.05;0.54
-4.90;-3.27;2.40;31.47;-0.98;1.31
-8.06;-1.63;-1.63;-16.12;6.21;1.31
-5.66;-4.90;5.55;-3.16;-11.43;6.21
1.63;-4.03;2.40;-1.63;7.84;1.31
-5.66;-2.50;0.76;-10.45;3.81;-1.09
-5.66;-0.87;-1.63;0.00;19.17;1.31
-1.63;-5.66;-4.03;0.00;18.30;-0.33
-2.40;-0.00;-1.63;-16.12;1.42;1.31
3.16;2.40;-1.63;4.03;3.05;3.70
5.66;1.52;-0.87;2.40;14.27;2.94
4.03;-4.90;-3.27;-0.76;9.47;-1.09
4.03;3.16;-1.63;1.63;7.84;1.31
16.12;1.52;-0.87;10.45;11.87;2.94
13.72;4.03;-1.63;9.69;9.47;0.54
2.40;4.79;-1.63;5.66;8.71;-11.54
-7.30;-0.00;-0.00;4.90;7.84;-0.33
-2.40;2.40;0.76;-4.03;7.08;-3.48
-0.00;30.60;-1.63;-5.66;1.42;-0.33
7.19;-0.00;-0.00;20.15;-6.64;10.24
4.79;-2.50;-0.00;-11.22;-5.88;2.94
-3.27;3.16;0.76;-4.79;7.08;1.31
-9.69;-2.50;2.40;-4.03;-10.67;-3.48
-7.30;2.40;0.76;-4.03;-12.31;-10.78
-6.43;-3.27;-0.00;-0.76;-12.31;1.31
-6.43;-4.03;-1.63;1.63;-6.64;2.18
-4.90;-4.03;0.76;4.90;3.81;-5.88
-1.63;-2.50;2.40;5.66;15.14;-5.88
2.40;-0.00;-1.63;-0.76;3.81;-3.48
2.40;4.03;-1.63;1.63;8.71;-1.09
3.16;3.16;-1.63;-4.03;3.05;-0.33
8.06;0.76;-1.63;0.87;-7.41;0.54
4.79;0.76;-1.63;-0.76;-9.04;2.18
2.40;3.16;-0.87;2.40;-9.04;0.54
-0.87;-4.03;-0.87;8.06;-17.10;-4.36
-4.03;16.88;-0.00;2.40;-27.55;-3.48
2.40;-0.87;3.16;-2.40;-22.00;0.54
1.63;-4.03;-1.63;4.03;-20.36;-0.33
0.76;-2.50;-1.63;-18.51;-8.28;-5.12
-3.27;-0.00;0.76;-5.66;3.81;1.31
-2.40;-0.00;-1.63;1.63;10.24;1.31
-3.27;-0.00;1.52;-3.16;9.47;1.31
-1.63;0.76;2.40;-3.16;16.77;1.31
-0.87;0.76;1.52;8.93;29.62;2.94
-0.00;1.52;1.52;-4.03;15.90;3.70
2.40;-2.50;-0.87;-19.28;16.77;0.54
7.19;2.40;-0.00;-3.16;14.27;5.34
12.85;1.52;-0.00;-4.03;5.44;-1.09
-3.27;24.94;-1.63;0.00;-6.64;-2.72
1.63;0.76;-4.03;1.63;-6.64;-3.48
-1.63;-0.87;-3.27;7.30;-5.01;-9.15
0.76;-1.63;7.19;4.03;-1.85;5.34
1.63;0.76;-1.63;2.40;-0.98;1.31
1.63;-0.87;-1.63;5.66;3.81;-1.09
-0.00;-3.27;-0.87;0.87;3.81;-0.33
1.63;-0.00;3.16;-3.16;9.47;-1.09
4.03;3.16;-0.00;4.90;33.65;-0.33
3.16;4.79;0.76;0.87;3.81;-7.51
2.40;-2.50;2.40;-0.76;6.21;-0.33
3.16;3.16;3.92;0.00;3.81;1.31
2.40;4.79;-1.63;-1.63;4.68;4.57
-4.90;4.79;-1.63;1.63;-0.98;10.24
-0.00;2.40;0.76;-0.76;-0.98;2.94
-0.00;-8.06;-0.87;9.69;-5.88;5.34
-4.90;-2.50;3.92;0.87;-22.76;6.97
-1.63;-0.00;-0.87;-4.03;-9.04;2.18
-2.40;-4.90;-0.00;-12.09;-9.91;0.54
-1.63;-2.50;-1.63;-8.82;-13.07;-1.85
1.63;0.76;-1.63;-15.25;-9.04;-7.51
-0.00;-33.11;-3.27;-15.25;-8.28;-5.88
1.63;0.76;-4.03;-10.45;-4.25;-3.48
1.63;-0.00;-2.50;-1.63;3.05;-5.88
-0.00;1.52;-1.63;11.33;5.44;-6.75
-2.40;2.40;-0.87;-3.16;3.81;-1.85
-3.27;-0.00;-1.63;2.40;12.74;-9.91
3.16;-4.03;-0.00;7.30;8.71;-5.88
4.03;-2.50;0.76;4.90;7.08;0.54
7.19;-0.87;0.76;5.66;7.08;1.31
7.19;4.79;-0.00;9.69;11.87;11.76
14.48;2.40;0.76;7.30;6.21;17.42
12.85;19.28;-0.00;4.90;3.81;3.70
-2.40;-4.03;-0.00;6.43;-5.01;-0.33
-8.93;0.76;3.16;1.63;-9.91;-0.33
-9.69;4.03;3.16;-4.79;-14.70;-3.48
-9.69;3.16;-0.87;-33.00;-22.00;1.31
-3.27;-3.27;0.76;-3.16;-22.76;0.54
8.06;-3.27;0.76;-0.76;-13.07;23.09
9.69;-0.87;-1.63;-7.19;-20.36;1.31
3.16;10.45;-1.63;-3.16;-9.91;-4.36
0.76;4.03;-3.27;-7.19;3.81;-5.88
-4.90;2.40;-2.50;-3.16;3.81;-6.75
-3.27;-0.00;-1.63;0.87;8.71;-9.15
-1.63;-0.00;-1.63;0.87;11.11;-4.36
-3.27;-0.00;-1.63;1.63;12.74;-0.33
-8.93;-4.03;-4.03;2.40;14.27;-13.94
-5.66;2.40;0.76;7.30;9.47;-1.09
-3.27;-4.03;0.76;0.00;11.87;0.54
2.40;18.51;-1.63;0.87;-9.04;3.70
4.79;2.40;1.52;4.03;3.81;2.94
9.69;3.16;1.52;2.40;5.44;10.24
8.06;-26.68;3.16;4.03;3.81;1.31
2.40;-2.50;0.76;-3.16;3.81;2.18
0.76;-1.63;-0.87;0.87;0.65;6.97
12.85;3.16;0.76;-5.66;-9.91;2.94
-1.63;14.48;-1.63;-3.16;-16.33;1.31
-8.93;-4.90;1.52;-1.63;-46.94;0.54
-6.43;-4.03;-2.50;-2.40;-25.16;0.54
-6.43;4.03;-1.63;-3.16;-29.19;-2.72
1.63;4.03;-0.87;1.63;-26.79;-26.03
0.76;-0.87;-1.63;-16.12;-22.76;-7.51
2.40;-0.87;-1.63;2.40;-7.41;1.31
2.40;-7.30;-5.66;11.33;4.68;-3.48
3.16;3.16;0.76;8.06;27.99;1.31
2.40;-15.35;0.76;4.90;30.38;-13.94
3.16;0.76;2.40;-4.03;25.59;-2.72
2.40;4.79;0.76;-11.22;9.47;0.54
1.63;15.25;-1.63;-8.06;3.05;0.54
-2.40;2.40;-0.87;-10.45;4.68;3.70
-0.87;-4.03;-0.00;-18.51;3.81;1.31
-0.00;-22.65;-0.00;-4.79;3.05;5.34
-5.66;-6.53;-0.00;-3.16;3.05;2.18
-2.40;4.03;1.52;1.63;7.84;-9.15
-8.06;0.76;0.76;7.30;5.44;22.32
-11.33;-0.00;-0.00;4.90;3.81;1.31
-3.27;-3.27;3.16;7.30;-3.38;1.31
1.63;-0.00;2.40;8.06;11.11;1.31
0.76;4.79;-21.78;7.30;-9.91;6.97
2.40;4.79;-1.63;1.63;-17.10;0.54
2.40;4.79;0.76;-2.40;-13.07;2.18
2.40;-8.06;-0.87;12.09;-6.64;-6.75
3.16;19.28;-1.63;-16.12;-11.43;-4.36
2.40;-2.50;-4.03;-3.16;3.81;1.31
4.79;-4.03;-0.87;-1.63;3.81;2.18
10.45;-1.63;0.76;-1.63;5.44;5.34
8.06;0.76;-16.99;-2.40;8.71;1.31
1.63;-25.05;-0.87;2.40;8.71;0.54
-2.40;0.76;-0.87;1.63;9.47;-3.48
-1.63;0.76;0.76;5.66;15.90;-0.33
-0.00;-0.87;1.52;2.40;12.74;-1.09
-3.27;0.76;-1.63;2.40;17.53;1.31
-9.69;-3.27;2.40;4.03;19.17;-1.09
-3.27;-7.30;3.92;-0.76;17.53;1.31
1.63;-3.27;3.16;-7.19;6.21;-0.33
-2.40;3.16;6.43;0.87;1.42;5.34
0.76;-2.50;2.40;0.87;-9.91;1.31
4.03;-3.27;3.16;1.63;-17.10;12.63
2.40;-2.50;3.16;-0.76;-34.09;2.18
-4.90;-8.93;0.76;-3.16;-38.88;1.31
12.85;-2.50;-2.50;-12.85;-46.06;-1.09
4.79;-13.72;-3.27;-16.12;-37.24;-7.51
-0.87;-0.00;-1.63;-16.12;-27.55;-3.48
-4.90;-0.87;-1.63;-12.09;-6.64;-9.15
-5.66;-0.87;13.61;-8.82;3.81;-6.75
-1.63;-2.50;-1.63;-3.16;14.27;-9.15
-1.63;-16.99;-3.27;-0.76;15.90;-9.15
-4.90;21.67;-2.50;-3.16;16.77;-5.88
2.40;0.76;-1.63;5.66;18.30;-1.09
-0.00;-1.63;-3.27;5.66;8.71;1.31
-4.90;17.64;20.04;9.69;21.56;1.31
2.40;-8.06;2.40;7.30;12.74;1.31
-1.63;-6.53;1.52;0.87;0.65;2.18
1.63;-2.50;0.76;-0.76;-9.91;2.94
-3.27;-0.87;3.92;-3.16;-21.13;2.94
-8.06;3.16;3.92;-3.16;-35.61;2.18
-5.66;2.40;3.92;-30.60;-20.36;1.31
-2.40;-15.35;-1.63;-1.63;-16.33;1.31
-1.63;4.03;-0.87;-1.63;1.42;-6.75
-2.40;4.79;-0.00;-3.16;12.74;0.54
-6.43;-0.87;-0.87;-1.63;16.77;-1.85
-3.27;-5.66;-1.63;-3.16;17.53;-3.48
2.40;4.03;-1.63;-8.06;15.90;2.94
13.72;1.52;-4.03;2.40;8.71;13.39
25.81;4.03;-1.63;1.63;3.81;2.94
7.19;1.52;2.40;-0.76;-1.85;0.54
3.16;-8.06;-0.87;5.66;3.81;-1.09
8.06;2.40;1.52;0.00;8.71;2.94
4.79;2.40;-12.09;0.87;9.47;-1.09
2.40;30.60;-1.63;2.40;6.21;1.31
0.76;0.76;5.55;5.66;3.81;-10.78
-8.06;13.61;0.76;1.63;-3.38;11.76
-6.43;2.40;3.16;4.03;-9.91;-11.54
-8.06;-2.50;2.40;-3.16;-11.43;1.31
-5.66;-3.27;3.92;29.84;-20.36;1.31
-2.40;-0.87;6.43;-2.40;1.42;-7.51
-5.66;-3.27;-16.99;4.90;10.24;2.94
-3.27;-2.50;-1.63;-33.00;-0.22;3.70
-2.40;-3.27;-0.87;-8.06;-9.91;1.31
-0.00;2.40;-1.63;-12.85;-13.07;1.31
1.63;-2.50;-0.87;-12.09;-21.13;-1.09
2.40;3.16;-1.63;-10.45;-21.13;-26.03
0.76;-7.30;-2.50;-11.22;-19.49;-5.88
0.76;-8.06;-2.50;-11.22;-38.11;-3.48
-0.00;0.76;-2.50;-0.76;-2.61;-5.88
-0.87;-0.87;-3.27;-0.76;0.65;-2.72
1.63;-2.50;-0.87;7.30;2.18;-9.91
-1.63;-24.18;0.76;8.93;17.53;-6.75
-2.40;-2.50;1.52;9.69;8.71;-7.51
-3.27;-5.66;0.76;17.75;14.27;-4.36
-1.63;-2.50;-11.33;12.09;14.27;18.30
4.03;4.79;2.40;4.03;11.11;10.24
10.45;1.52;0.76;-2.40;10.24;13.39
2.40;4.03;3.16;-3.16;12.74;4.57
-5.66;2.40;2.40;-12.09;15.90;0.54
1.63;4.79;-1.63;-8.06;5.44;1.31
-0.00;4.79;-0.00;-4.79;4.68;1.31
-5.66;-0.87;-0.87;-1.63;4.68;1.31
1.63;-25.05;0.76;-3.16;1.42;-6.75
4.79;4.79;-0.87;0.87;2.18;10.24
13.72;0.76;11.22;2.40;-4.25;1.31
2.40;-2.50;-1.63;13.72;-0.98;-5.88
-2.40;-0.87;-5.66;1.63;-9.04;-9.15
-3.27;4.03;-2.50;-2.40;-7.41;-4.36
-5.66;0.76;-2.50;0.87;-7.41;-9.15
1.63;4.79;-3.27;0.00;-9.04;-3.48
-2.40;4.03;-1.63;31.47;-7.41;0.54
-0.00;0.76;2.40;4.03;-9.91;19.06
-0.87;-0.87;-1.63;-2.40;-5.88;-1.09
-0.00;-6.53;-2.50;0.87;3.81;-1.09
-8.06;-2.50;1.52;-2.40;6.21;1.31
-1.63;-5.66;-1.63;-0.76;7.08;1.31
0.76;3.16;-3.27;4.03;7.84;9.37
-6.43;-0.00;2.40;9.69;9.47;2.18
-8.06;2.40;-0.00;8.06;25.59;1.31
-5.66;-0.87;0.76;8.93;19.17;1.31
-0.00;-3.27;-1.63;4.90;5.44;1.31
0.76;-2.50;5.55;-4.03;-0.98;6.21
24.94;-0.87;-2.50;-4.03;-5.88;2.18
10.45;3.16;-0.87;-5.66;-14.70;1.31
-0.87;4.79;-2.50;-4.03;-17.10;-5.88
-2.40;-0.87;-2.50;-7.19;-22.00;-9.91
2.40;-2.50;-1.63;-5.66;-26.79;-3.48
2.40;4.79;-2.50;-4.79;-24.39;-0.33
-1.63;-4.03;-22.65;1.63;-19.49;-2.72
1.63;3.16;-1.63;1.63;-6.64;-9.15
2.40;30.60;-0.00;0.87;3.05;-1.09
2.40;0.76;-1.63;-0.76;11.87;-5.88
2.40;3.16;-1.63;-2.40;15.90;-1.85
0.76;3.16;0.76;-0.76;32.89;-11.54
-0.87;-0.87;-1.63;4.90;6.21;-1.09
2.40;3.16;-0.87;5.66;4.68;1.31
1.63;-5.66;0.76;17.75;-0.22;5.34
-5.66;4.79;3.92;9.69;-13.07;23.09
-5.66;-0.87;3.16;0.00;-14.70;1.31
-8.93;-4.03;2.40;-4.03;-13.07;4.57
-3.27;4.79;5.55;-15.25;-9.04;19.82
-1.63;4.79;0.76;-8.06;1.42;1.31
0.76;-2.50;-3.27;-8.06;7.84;3.70
1.63;-5.66;-1.63;-8.82;3.81;1.31
4.79;0.76;-4.03;-3.16;12.74;2.18
4.79;-0.00;-1.63;0.87;3.05;-4.36
6.43;2.40;-2.50;10.45;3.81;1.31
10.45;3.16;-1.63;26.57;-0.98;-3.48
10.45;1.52;-1.63;1.63;-1.85;-13.18
3.16;-3.27;-2.50;6.43;3.81;-1.85
0.76;3.16;-2.50;6.43;3.05;-3.48
-1.63;-0.87;-1.63;4.90;3.05;-4.36
-1.63;-6.53;2.40;-2.40;3.81;-1.09
0.76;0.76;3.92;2.40;-0.22;-7.51
-0.00;1.52;-6.53;-7.19;-0.98;-22.00
-4.90;3.16;0.76;2.40;-8.28;2.18
-2.40;-5.66;-0.87;-4.03;-5.01;-1.09
-11.33;-2.50;0.76;-11.22;-13.07;0.54
-10.45;-4.03;-12.96;-4.79;-4.25;2.18
-6.43;-0.87;-18.62;0.87;7.84;-3.48
-4.90;-2.50;1.52;7.30;5.44;1.31
-8.06;-4.03;-1.63;-12.85;4.68;-1.85
-4.90;-0.00;-1.63;6.43;2.18;0.54
-2.40;2.40;-12.09;1.63;-7.41;10.24
-0.00;2.40;-0.87;-5.66;-6.64;2.94
11.22;4.79;0.76;-2.40;3.05;15.79
24.18;4.03;-1.63;1.63;7.08;15.03
8.82;0.76;-1.63;1.63;4.68;0.54
5.66;-2.50;-1.63;4.03;5.44;8.60
11.22;4.79;-2.50;-0.76;8.71;0.54
-0.00;3.16;0.76;7.30;9.47;-10.78
2.40;-0.87;-1.63;8.06;11.11;-5.12
1.63;-0.87;1.52;7.30;9.47;16.66
-8.93;-8.93;-0.00;-4.03;3.81;-2.72
-6.43;-0.87;3.16;4.03;-0.22;17.42
-8.06;-2.50;0.76;0.87;-31.58;1.31
-6.43;0.76;2.40;-3.16;-8.28;3.70
-1.63;1.52;2.40;2.40;-10.67;4.57
10.45;4.79;-0.87;-13.72;-9.91;11.76
2.40;-12.09;2.40;-1.63;-8.28;6.97
-8.06;3.16;3.16;-1.63;2.18;1.31
-8.06;-2.50;0.76;-3.16;6.21;0.54
0.76;-0.87;-0.00;-1.63;9.47;-0.33
-2.40;-3.27;-1.63;4.03;19.17;-3.48
1.63;-5.66;-3.27;-3.16;1.42;-2.72
4.79;4.79;-1.63;9.69;3.81;-6.75
2.40;2.40;-2.50;7.30;-7.41;-11.54
-1.63;0.76;-3.27;13.72;-19.49;-8.39
1.63;-3.27;-0.87;9.69;-31.58;-6.75
-0.00;-0.87;-1.63;0.00;-30.82;-4.36
1.63;1.52;-0.00;-6.43;-26.79;-26.03
1.63;2.40;2.40;-15.25;-22.00;0.54
-0.00;-23.41;-1.63;-23.30;-11.43;0.54
-1.63;0.76;-0.00;-20.15;3.81;-4.36
0.76;3.16;-0.00;-16.12;15.14;-3.48
-2.40;-0.87;-1.63;-10.45;17.53;-1.09
-2.40;-2.50;-1.63;-4.03;19.93;1.31
-1.63;2.40;3.16;7.30;2.18;1.31
-1.63;1.52;0.76;7.30;-7.41;0.54
-0.00;-2.50;10.45;7.30;-10.67;-18.84
2.40;-4.03;-0.87;-24.18;-16.33;1.31
-1.63;-4.03;2.40;0.87;-10.67;-1.09
0.76;-0.87;16.01;-4.79;-8.28;2.18
-0.00;-0.00;-0.87;-4.79;-1.85;-24.50
2.40;0.76;-1.63;-3.16;3.81;2.18
1.63;-6.53;-16.12;-2.40;7.84;-1.09
0.76;-5.66;-27.44;0.00;11.87;0.54
3.16;4.03;-0.87;24.18;15.14;2.18
2.40;-3.27;-2.50;9.69;19.17;3.70
7.19;0.76;-1.63;11.33;16.77;1.31
3.16;4.03;-0.00;11.33;14.27;-2.72
0.76;2.40;3.16;5.66;12.74;-3.48
2.40;4.03;-1.63;-0.76;11.87;-11.54
2.40;0.76;2.40;-4.79;7.08;-0.33
3.16;4.79;0.76;-26.57;4.68;0.54
-1.63;4.03;2.40;-3.16;-0.98;3.70
-4.90;2.40;3.92;0.00;-1.85;2.94
-4.90;-4.03;5.55;-1.63;-6.64;2.94
-5.66;0.76;3.16;-8.06;-13.94;2.18
-0.00;-5.66;3.16;-0.76;-6.64;2.94
0.76;-2.50;1.52;0.87;-9.04;1.31
-2.40;-4.03;-0.00;-2.40;-4.25;11.00
-0.87;-15.35;-0.00;-2.40;-7.41;-24.50
2.40;0.76;-1.63;-3.16;-3.38;0.54
-2.40;3.16;-2.50;0.87;1.42;-2.72
0.76;-8.93;-4.03;-3.16;-0.22;1.31
-0.87;3.16;-7.30;-5.66;1.42;-3.48
2.40;-3.27;-3.27;0.87;3.81;-0.33
4.79;-0.00;-2.50;2.40;3.05;0.54
9.69;5.55;-1.63;0.87;3.81;-1.09
23.30;4.79;-1.63;4.90;3.81;-13.18
7.19;2.40;0.76;4.03;1.42;2.94
14.48;1.52;11.98;-3.16;3.05;1.31
5.66;1.52;-0.87;33.00;2.18;3.70
-2.40;-3.27;-0.87;9.69;-5.88;-2.72
-4.90;-4.90;-0.00;5.66;11.11;2.18
-9.69;-3.27;-0.00;4.03;15.90;2.94
-3.27;2.40;-16.12;6.43;6.21;6.97
-5.66;0.76;2.40;1.63;1.42;4.57
-4.90;2.40;3.16;-3.16;6.21;1.31
-2.40;-0.00;-0.00;-3.16;-9.04;0.54
-0.00;0.76;23.30;-10.45;-11.43;2.18
-2.40;-7.30;-1.63;-3.16;0.65;-0.33
-2.40;-2.50;-1.63;-3.16;5.44;0.54
0.76;-2.50;-3.27;-0.76;3.81;-5.88
2.40;-0.00;-1.63;-0.76;4.68;-3.48
-0.00;3.16;-7.30;-2.40;4.68;0.54
2.40;-4.03;-4.03;0.87;3.81;-9.91
-4.90;4.03;-1.63;-1.63;-6.64;-5.88
-0.00;-0.00;10.45;-0.76;-13.07;21.45
-0.00;4.03;-0.00;-3.16;-19.49;-7.51
2.40;2.40;3.92;4.90;-20.36;-2.72
-1.63;-1.63;-0.87;5.66;-21.13;1.31
-0.00;-0.00;-1.63;5.66;-13.07;2.18
2.40;0.76;1.52;0.87;-13.07;10.24
15.25;0.76;1.52;4.90;4.68;26.24
4.79;4.03;21.67;2.40;18.30;3.70
-1.63;-22.65;0.76;-2.40;19.93;35.17
-5.66;3.16;0.76;0.87;24.83;-2.72
-4.90;4.03;7.95;-1.63;17.53;-14.81
-12.09;-0.87;1.52;0.00;4.68;-1.09
-9.69;4.79;0.76;2.40;-13.07;-2.72
-4.90;2.40;0.76;-0.76;-26.03;-1.09
-0.00;-1.63;-3.27;1.63;-31.58;1.31
2.40;-2.50;-2.50;-4.03;-29.19;0.54
2.40;0.76;-1.63;-2.40;-9.91;1.31
-1.63;-2.50;-1.63;-2.40;4.68;13.39
-3.27;-2.50;11.22;0.00;18.30;-11.54
-0.00;-11.33;-1.63;1.63;29.62;-0.33
2.40;-0.00;1.52;0.00;34.41;9.37
2.40;-0.00;-1.63;2.40;24.83;1.31
4.03;-0.87;26.57;5.66;10.24;1.31
2.40;0.76;-4.03;4.03;3.05;1.31
2.40;-5.66;-1.63;-3.16;-17.10;2.18
3.16;28.97;-1.63;-0.76;-22.00;1.31
2.40;-3.27;-0.00;-2.40;-46.94;1.31
-1.63;0.76;-0.00;-4.03;-27.55;1.31
-2.40;-0.87;0.76;-3.16;-26.03;1.31
0.76;2.40;-1.63;-4.79;-13.94;0.54
-4.90;-2.50;3.16;0.00;-1.85;-22.00
-0.00;-0.00;-0.87;-4.03;6.21;2.18
-2.40;-3.27;2.40;0.00;7.84;2.94
2.40;0.76;-0.87;1.63;5.44;1.31
3.16;4.03;-1.63;0.87;9.47;-0.33
2.40;10.45;-3.27;-0.76;12.74;-24.50
3.16;4.03;-2.50;11.33;14.27;1.31
4.79;-12.09;-1.63;16.12;15.90;-1.85
2.40;-29.84;-0.87;10.45;12.74;-0.33
2.40;-25.05;0.76;0.87;10.24;-0.33
-3.27;4.79;-6.53;-10.45;9.47;-14.81
-4.90;4.79;10.45;-12.09;7.84;-5.88
-1.63;2.40;-1.63;-8.06;0.65;-22.87
-3.27;4.79;-1.63;-10.45;-4.25;0.54
-2.40;-12.96;-1.63;0.00;-10.67;1.31
2.40;-4.03;-4.90;0.87;-14.70;2.94
7.19;-6.53;-1.63;0.00;-13.07;8.60
11.22;4.79;-1.63;2.40;-13.07;9.37
4.03;1.52;2.40;4.03;-9.91;6.97
2.40;12.85;-1.63;7.30;-7.41;23.09
-0.00;-4.03;0.76;9.69;-5.01;-1.09
-8.06;-4.03;-1.63;8.06;1.42;16.66
2.40;-0.00;2.40;0.00;6.21;6.97
3.16;1.52;1.52;-3.16;8.71;2.94
-3.27;4.79;-2.50;-5.66;6.21;2.94
0.76;-3.27;-1.63;-7.19;6.21;1.31
-4.90;-2.50;-5.66;-11.22;-0.22;-1.09
1.63;-31.47;-2.50;-3.16;2.18;-4.36
2.40;-0.87;-1.63;0.87;3.81;2.18
3.16;2.40;-1.63;-4.03;7.84;1.31
-3.27;-0.87;-2.50;-0.76;9.47;-7.51
-2.40;-4.03;-2.50;8.06;7.84;-2.72
1.63;-7.30;-0.87;-16.12;5.44;-1.85
-0.00;-3.27;-0.00;13.72;-6.64;0.54
-0.87;-6.53;0.76;9.69;-3.38;1.31
2.40;-0.87;-0.00;-2.40;-11.43;-0.33
-2.40;-7.30;0.76;0.00;-20.36;-0.33
-2.40;-22.65;0.76;-6.43;-16.33;2.18
2.40;3.16;-0.00;-4.03;-13.07;-20.47
11.22;2.40;3.16;-3.16;-10.67;8.60
2.40;-8.93;2.40;-4.03;-13.07;-11.54
-1.63;34.63;0.76;-7.19;-5.01;-1.09
-3.27;-0.00;0.76;-5.66;8.71;-3.48
-9.69;-20.15;-1.63;-1.63;-3.38;6.97
-0.00;-0.00;-1.63;4.03;15.90;-0.33
0.76;-4.03;-1.63;8.06;17.53;-0.33
2.40;21.67;-1.63;7.30;8.71;-0.33
2.40;-9.69;-1.63;11.33;-7.41;0.54
2.40;-12.09;-1.63;-0.76;-9.91;-1.09
2.40;6.43;2.40;-5.66;-11.43;11.76
2.40;-0.00;0.76;-4.03;-10.67;2.18
-1.63;-23.41;0.76;-28.21;-11.43;5.34
2.40;-8.06;-0.87;0.87;-1.85;-8.39
1.63;-9.69;-1.63;4.03;3.81;3.70
2.40;1.52;-1.63;-3.16;3.05;3.70
1.63;0.76;3.92;-2.40;3.81;2.18
1.63;-7.30;0.76;1.63;-1.85;1.31
2.40;2.40;3.16;5.66;3.05;1.31
2.40;0.76;-0.00;1.63;3.81;1.31
-3.27;-26.68;-1.63;0.87;3.81;-22.87
-1.63;2.40;-0.00;4.90;3.81;1.31
-4.90;-0.00;-0.87;1.63;2.18;27.12
-1.63;-0.00;-2.50;0.00;-0.22;-1.09
0.76;1.52;-1.63;-3.16;3.05;-1.09
2.40;-4.03;-0.87;-1.63;9.47;9.37
-0.00;4.03;-2.50;-4.79;15.90;0.54
-1.63;-2.50;-4.03;-5.66;24.83;-5.88
0.76;-6.53;-1.63;1.63;18.30;1.31
2.40;4.79;-1.63;-1.63;11.11;2.94
2.40;0.76;2.40;-0.76;-7.41;2.18
0.76;0.76;-1.63;2.40;-21.13;-0.33
-5.66;-2.50;-1.63;-0.76;-22.00;-1.85
-1.63;-2.50;-18.62;-2.40;-21.13;0.54
6.43;-7.30;-0.00;-2.40;-26.03;1.31
7.19;2.40;-0.87;4.90;-30.82;-1.85
2.40;0.76;0.76;-4.03;-7.41;-9.15
-3.27;5.55;-0.87;4.90;-1.85;-9.15
-4.90;0.76;-0.00;0.87;0.65;-24.50
-12.96;21.67;2.40;-17.75;3.81;1.31
-9.69;4.03;2.40;0.87;2.18;1.31
-8.93;-4.03;3.92;-3.16;1.42;5.34
2.40;30.60;0.76;-1.63;-0.98;6.97
2.40;-0.00;-0.00;-3.16;3.05;3.70
12.85;4.03;-0.87;9.69;-22.76;14.27
6.43;-4.03;-12.96;2.40;3.81;10.24
9.69;6.43;-2.50;-23.30;9.47;-1.09
10.45;4.03;-1.63;1.63;13.50;1.31
1.63;-5.66;-1.63;-0.76;11.87;-1.85
2.40;4.03;-1.63;-1.63;3.81;1.31
1.63;2.40;-3.27;17.75;3.05;-1.09
0.76;2.40;-1.63;-0.76;-6.64;-3.48
-7.30;-3.27;26.57;9.69;-5.01;-3.48
-6.43;-2.50;1.52;9.69;-0.98;-3.48
-3.27;0.76;-3.27;10.45;0.65;-1.09
-4.90;4.79;3.16;2.40;3.05;-6.75
-9.69;23.30;6.43;-14.48;-0.22;-11.54
-5.66;-5.66;-0.00;-16.88;3.05;-5.88
-4.90;2.40;0.76;-17.75;7.84;-1.09
-8.06;33.00;0.76;-20.15;12.74;2.18
-6.43;-3.27;-0.00;-10.45;17.53;2.18
-7.30;0.76;-0.87;-2.40;14.27;1.31
-4.03;-2.50;-0.87;0.87;3.05;4.57
1.63;1.52;3.92;-1.63;3.81;0.54
-0.00;-0.00;0.76;7.30;-6.64;1.31
2.40;-8.06;-1.63;8.06;-17.10;0.54
2.40;1.52;-1.63;7.30;-29.19;-1.09
3.16;-0.87;-6.53;2.40;-33.21;-9.15
2.40;-0.87;-3.27;0.87;-34.09;1.31
16.12;4.79;-1.63;-4.03;-33.21;2.18
6.43;0.76;-3.27;-2.40;-26.03;-6.75
-0.87;12.85;-0.87;-3.16;-12.31;-12.41
-5.66;0.76;-1.63;0.87;-2.61;-4.36
-4.90;-0.87;-1.63;-2.40;4.68;0.54
-1.63;-0.00;-1.63;0.87;19.17;-3.48
-1.63;-4.03;-1.63;-2.40;19.93;19.82
-2.40;-3.27;-1.63;0.87;52.93;-0.33
2.40;0.76;3.16;12.96;45.74;3.70
4.79;-2.50;0.76;-14.48;11.11;1.31
2.40;-28.21;2.40;5.66;6.21;2.18
-2.40;0.76;7.95;0.87;-0.22;9.37
-2.40;-4.90;3.16;6.43;-7.41;3.70
0.76;-4.03;2.40;1.63;-17.10;3.70
-5.66;0.76;-0.00;-3.16;-22.00;6.21
-0.00;-0.00;-0.87;-6.43;-20.36;1.31
-3.27;-4.03;1.52;-5.66;-22.00;0.54
2.40;0.76;-0.87;-5.66;-9.91;-5.88
4.03;-2.50;-1.63;-4.79;-3.38;-9.91
2.40;1.52;-1.63;-1.63;3.81;-9.15
-0.00;1.52;-1.63;5.66;5.44;-5.88
-1.63;-3.27;-2.50;-2.40;9.47;-0.33
2.40;-0.87;-1.63;-2.40;11.11;1.31
2.40;-0.00;-1.63;-0.76;-0.98;19.82
4.03;7.19;-2.50;1.63;-4.25;-2.72
-0.00;-1.63;-0.00;2.40;-4.25;0.54
-4.90;3.16;0.76;-1.63;-4.25;0.54
-4.90;-8.06;-0.00;-0.76;-1.85;1.31
-2.40;3.16;1.52;7.30;-3.38;-0.33
-1.63;-3.27;1.52;-1.63;3.05;2.94
-0.87;-6.53;-0.87;-2.40;4.68;6.21
-0.87;-2.50;-0.00;-4.03;-13.07;6.21
0.76;0.76;-0.00;-8.06;3.81;11.00
3.16;-0.00;0.76;-12.09;2.18;12.63
14.48;-0.00;2.40;-2.40;-0.98;12.63
4.03;3.16;-1.63;-4.03;-1.85;0.54
3.16;0.76;-1.63;-4.79;2.18;-5.88
2.40;-0.87;-1.63;-3.16;-3.38;-11.54
-2.40;-0.00;-3.27;-0.76;2.18;-13.18
-1.63;5.55;-3.27;4.03;3.05;-11.54
2.40;-4.03;-4.03;2.40;3.05;-9.15
-2.40;-0.00;-1.63;1.63;-6.64;-4.36
-4.90;0.76;-3.27;2.40;-5.88;-1.09
-0.87;0.76;-0.87;-4.03;-9.91;-5.88
-0.00;4.03;-1.63;-0.76;-9.91;-22.00
0.76;4.03;-0.00;2.40;-3.38;-10.78
-4.90;4.03;1.52;-1.63;3.05;23.85
-2.40;-0.87;0.76;-2.40;-0.22;-1.85
-2.40;-0.00;3.16;2.40;4.68;0.54
-0.00;3.16;2.40;-3.16;-17.10;3.70
-2.40;1.52;7.19;4.90;3.81;6.97
1.63;-0.87;3.16;4.03;3.81;5.34
-0.00;4.79;2.40;2.40;-0.22;6.97
2.40;-2.50;0.76;0.87;-3.38;6.21
2.40;-0.00;-1.63;0.87;7.84;15.79
4.03;-3.27;-1.63;7.30;16.77;2.94
3.16;-3.27;-0.87;-4.03;22.32;2.18
6.43;4.03;-0.87;43.56;15.90;-0.33
-0.00;-0.00;-9.69;2.40;6.21;-6.75
-3.27;0.76;-1.63;-2.40;-6.64;-1.09
-5.66;-3.27;-3.27;-0.76;-9.04;-5.88
-5.66;-4.03;-3.27;-4.03;-14.70;-10.78
2.40;-2.50;-4.03;-4.03;-22.76;0.54
12.09;4.03;-0.87;-1.63;-21.13;-2.72
3.16;0.76;2.40;6.43;-22.00;-0.33
0.76;2.40;0.76;2.40;-16.33;-8.39
-0.87;0.76;-0.87;0.00;-4.25;-2.72
1.63;-2.50;-1.63;-4.79;-0.98;1.31
-4.90;-4.03;-4.03;-8.06;-6.64;-31.69
-3.27;4.79;-0.87;-4.79;-13.07;-2.72
-3.27;-7.30;-0.87;-4.03;-0.22;2.94
-4.90;-2.50;-1.63;-5.66;-5.01;4.57
-5.66;-0.00;0.76;4.03;-5.01;6.97
-4.90;-23.41;-0.00;9.69;4.68;2.94
-1.63;4.03;2.40;13.72;11.87;1.31
-1.63;-5.66;-0.00;12.96;8.71;1.31
1.63;-4.90;-4.03;4.03;-8.28;1.31
2.40;4.03;-1.63;-6.43;9.47;6.21
-1.63;-2.50;-1.63;-13.72;3.81;-0.33
-1.63;-7.30;-2.50;-16.12;-0.98;1.31
1.63;-5.66;-4.03;-16.12;-4.25;-6.75
1.63;16.88;-1.63;-8.82;-9.04;-6.75
7.19;-29.08;-2.50;-4.79;-6.64;-4.36
4.79;-0.00;-27.44;-5.66;-3.38;15.79
1.63;-5.66;-2.50;5.66;2.18;-1.09
4.03;-8.06;-0.00;10.45;4.68;5.34
1.63;2.40;0.76;12.96;25.59;-5.88
-11.33;-3.27;-0.87;12.96;29.62;11.76
-8.06;3.16;-0.87;9.69;30.38;1.31
-1.63;-0.87;3.16;5.66;16.77;2.94
-2.40;3.16;3.16;2.40;3.81;2.94
1.63;4.03;3.16;-3.16;-11.43;15.79
4.03;-0.00;1.52;-1.63;-22.00;2.94
7.19;1.52;2.40;-8.06;-30.06;4.57
3.16;3.16;-0.87;-4.03;-37.24;1.31
2.40;-0.87;-0.00;24.94;-37.24;3.70
-1.63;0.76;-1.63;-4.79;-30.82;-7.51
-8.06;0.76;-1.63;-7.19;-22.00;-9.91
-5.66;-0.87;-1.63;-4.79;-3.38;-11.54
-3.27;0.76;-4.03;-8.82;-4.25;-11.54
-3.27;2.40;-0.87;-3.16;7.84;-10.78
-1.63;-0.00;-1.63;-2.40;32.89;-7.51
-5.66;-2.50;-1.63;-3.16;9.47;1.31
2.40;-0.00;-1.63;2.40;11.87;1.31
8.06;-0.87;-0.87;4.03;12.74;3.70
16.88;4.79;-0.00;9.69;15.90;15.79
14.48;2.40;-1.63;2.40;6.21;11.76
2.40;4.79;2.40;-27.33;15.90;2.94
-2.40;0.76;-0.00;10.45;17.53;3.70
-2.40;4.03;3.92;2.40;15.14;1.31
-1.63;4.79;3.16;-28.21;15.90;-3.48
-8.06;-0.00;2.40;4.03;16.77;-6.75
-10.45;-0.00;0.76;14.48;9.47;-2.72
-0.00;-0.00;-0.00;-15.25;-5.01;1.31
-0.00;-3.27;2.40;-3.16;-20.36;-1.09
0.76;-2.50;-0.87;2.40;-13.07;1.31
1.63;-0.00;-2.50;0.00;-31.58;-2.72
2.40;2.40;-3.27;-8.06;-27.55;5.34
7.19;0.76;-1.63;-4.79;-22.00;0.54
2.40;-0.87;-0.87;-4.79;-13.94;-1.85
-3.27;-29.08;-2.50;-3.16;-20.36;-2.72
-3.27;0.76;-1.63;-4.79;0.65;-1.85
-2.40;-2.50;-1.63;-3.16;3.81;-1.09
-1.63;2.40;-1.63;-4.79;5.44;-7.51
2.40;-2.50;-1.63;5.66;9.47;1.31
13.72;4.79;0.76;-0.76;7.08;-2.72
2.40;-3.27;-1.63;4.90;9.47;-9.15
-3.27;-0.00;0.76;0.00;11.11;1.31
-1.63;2.40;3.16;-8.06;8.71;-0.33
-0.87;-0.00;3.16;2.40;11.87;3.70
-6.43;-0.00;5.55;-7.19;3.81;1.31
-3.27;2.40;2.40;-29.84;3.05;2.18
-8.93;-3.27;0.76;-23.30;3.81;5.34
-2.40;2.40;-0.87;-3.16;0.65;6.97
2.40;4.79;-0.87;-0.76;-1.85;3.70
2.40;0.76;-0.87;18.51;3.81;1.31
1.63;-5.66;-2.50;-1.63;2.18;-1.85
0.76;4.03;-2.50;-5.66;-8.28;-3.48
2.40;-2.50;-1.63;2.40;2.18;-2.72
3.16;-2.50;-2.50;6.43;3.05;1.31
4.79;-0.87;-2.50;-3.16;19.17;-0.33
2.40;2.40;-0.87;-3.16;-9.91;-23.63
1.63;-2.50;-0.87;2.40;-9.04;8.60
2.40;1.52;-0.87;5.66;-13.94;0.54
-4.90;0.76;-1.63;1.63;-0.22;-10.78
0.76;-0.87;-1.63;-2.40;3.81;8.60
2.40;4.03;1.52;-3.16;-1.85;1.31
-0.87;-0.87;-1.63;-3.16;-0.22;1.31
-0.00;-0.87;-1.63;-2.40;-0.22;0.54
-3.27;-5.66;-0.87;-6.43;-29.19;5.34
-7.30;0.76;5.55;-7.19;-10.67;-2.72
2.40;1.52;7.19;-3.16;-7.41;1.31
-0.00;1.52;1.52;-4.03;-7.41;0.54
-2.40;-2.50;2.40;-0.76;-6.64;-22.87
-0.87;0.76;-1.63;-0.76;-5.01;2.18
-3.27;-4.03;-1.63;8.06;6.21;-4.36
0.76;-2.50;-0.00;4.90;10.24;1.31
2.40;-0.87;-2.50;11.33;18.30;1.31
2.40;4.79;-1.63;12.09;22.32;-0.33
2.40;0.76;-0.87;4.90;24.83;-1.09
0.76;4.03;-0.00;0.87;19.17;6.97
-5.66;-0.00;-1.63;-3.16;3.81;-4.36
-4.90;1.52;-0.87;-16.12;-4.25;-3.48
-5.66;0.76;-1.63;-5.66;-22.00;-2.72
-0.00;-5.66;-1.63;-4.03;-23.52;1.31
2.40;4.79;-0.87;8.06;-13.07;1.31
2.40;4.79;-0.00;9.69;-6.64;-0.33
6.43;2.40;-0.87;2.40;-0.22;6.97
19.28;2.40;-0.00;-0.76;17.53;10.24
7.19;-0.87;-0.87;-0.76;16.77;2.94
2.40;-3.27;0.76;-3.16;6.21;6.21
2.40;4.79;3.16;-14.48;-4.25;1.31
-1.63;-4.03;6.43;-11.22;-17.97;1.31
-3.27;0.76;-0.00;-6.43;-17.10;-0.33
-4.90;-0.00;0.76;-4.03;-12.31;1.31
-1.63;-1.63;-0.87;8.06;3.81;1.31
1.63;-0.87;-0.87;-12.09;6.21;-1.09
-1.63;-3.27;-5.66;2.40;9.47;2.18
-6.43;-0.00;-2.50;8.93;17.53;-8.39
-3.27;-4.03;-2.50;4.03;9.47;-9.15
2.40;-3.27;-2.50;-1.63;-0.98;-12.41
-0.00;10.45;-0.87;-24.94;-9.91;-5.88
-1.63;2.40;-1.63;1.63;-11.43;-8.39
-2.40;-0.00;-1.63;0.87;-21.13;-5.88
-1.63;0.76;2.40;-6.43;-22.00;-0.33
-2.40;25.70;2.40;0.87;-13.94;1.31
-0.00;-0.00;3.16;17.75;27.22;8.60
10.45;3.16;18.51;-3.16;3.81;6.21
2.40;-3.27;0.76;-2.40;6.21;1.31
10.45;3.16;3.92;0.00;9.47;5.34
14.48;-20.15;1.52;2.40;29.62;8.60
0.76;-9.69;1.52;-28.97;3.81;5.34
-6.43;-3.27;-0.00;-1.63;3.05;14.27
-1.63;-10.56;2.40;-6.43;-0.22;2.18
-2.40;3.16;-0.87;-3.16;3.05;2.94
2.40;6.43;-0.87;-3.16;-5.01;-16.44
2.40;0.76;-0.87;-6.43;-10.67;1.31
2.40;-4.03;-1.63;-4.03;-1.85;0.54
4.03;2.40;-2.50;2.40;3.81;1.31
4.79;-0.00;-1.63;8.06;15.90;-6.75
-0.87;-0.00;-28.21;0.87;16.77;-9.15
-3.27;-0.00;-1.63;0.87;16.77;-6.75
-5.66;-4.03;-1.63;2.40;12.74;-5.88
-5.66;4.79;-0.87;0.00;5.44;-5.88
-0.87;-3.27;-14.59;2.40;3.81;-2.72
-5.66;-0.00;-1.63;4.03;-5.01;-3.48
-3.27;-2.50;3.16;-1.63;-10.67;1.31
0.76;-29.08;-0.00;-7.19;-18.73;1.31
0.76;-9.69;-0.00;-0.76;-19.49;6.97
-0.87;1.52;0.76;-1.63;-19.49;1.31
2.40;21.67;2.40;-2.40;-27.55;1.31
-0.87;-2.50;28.10;-0.76;-6.64;-3.48
1.63;-25.05;-0.87;-4.03;-3.38;1.31
2.40;4.79;0.76;1.63;2.18;-13.94
-3.27;-5.66;-1.63;-3.16;4.68;2.18
0.76;8.82;0.76;24.18;-3.38;1.31
2.40;0.76;-1.63;23.41;7.08;1.31
2.40;1.52;-1.63;0.87;15.90;-4.36
1.63;-4.03;-1.63;0.00;15.90;-3.48
4.03;0.76;-2.50;-4.03;14.27;-4.36
2.40;4.79;-1.63;4.03;5.44;-2.72
-0.00;1.52;-1.63;-1.63;-4.25;1.31
-4.90;4.03;0.76;-0.76;-13.07;-2.72
0.76;0.76;-1.63;2.40;-13.94;-4.36
2.40;-8.93;3.16;-15.25;-20.36;-1.09
-2.40;-7.30;0.76;-7.19;-14.70;1.31
-2.40;-0.00;0.76;5.66;1.42;-0.33
4.79;-8.06;0.76;10.45;3.81;1.31
7.19;4.79;-0.00;4.03;4.68;3.70
5.66;-2.50;-1.63;-1.63;6.21;6.97
13.72;2.40;2.40;4.90;8.71;18.30
15.25;0.76;-0.00;-5.66;24.83;11.00
2.40;3.16;-0.00;-5.66;-6.64;6.21
-8.06;4.79;-0.00;-4.79;-4.25;3.70
-8.93;-2.50;-0.87;-6.43;-7.41;-2.72
-5.66;-4.03;-1.63;-4.03;-13.07;-12.41
-6.43;-0.00;-1.63;-4.79;-8.28;-3.48
-3.27;-7.30;-1.63;-4.03;-5.88;-22.00
-2.40;-24.18;-2.50;5.66;3.81;-2.72
1.63;1.52;-1.63;15.35;11.11;-10.78
-1.63;-3.27;-0.87;8.06;20.80;-7.51
0.76;-5.66;-1.63;7.30;17.53;-2.72
1.63;-7.30;-0.00;20.91;31.25;-2.72
-1.63;-3.27;-3.27;0.87;1.42;-9.91
-5.66;-4.03;0.76;-5.66;-9.91;-3.48
-0.00;0.76;3.16;-7.19;-22.00;-1.09
2.40;2.40;1.52;-5.66;-21.13;1.31
2.40;4.79;-0.00;-4.03;-22.00;-15.57
7.19;-21.02;3.16;-3.16;-20.36;8.60
2.40;0.76;-0.87;-1.63;-9.04;2.18
-1.63;-28.21;2.40;5.66;3.81;5.34
4.79;-0.87;-0.00;9.69;12.74;4.57
2.40;1.52;0.76;5.66;3.81;3.70
-4.90;-0.00;0.76;10.45;-2.61;1.31
-4.90;0.76;-1.63;4.90;-8.28;3.70
-2.40;-0.87;-2.50;-2.40;-8.28;0.54
-1.63;33.00;-1.63;-7.19;-1.85;-0.33
2.40;2.40;-4.90;-14.48;-0.22;-2.72
0.76;4.03;-0.00;-13.72;6.21;-5.88
2.40;0.76;-1.63;-16.12;11.87;-9.15
2.40;-0.87;-1.63;-11.22;15.90;-1.09
4.79;3.16;2.40;-3.16;25.59;2.94
4.03;1.52;18.51;2.40;11.11;-3.48
2.40;2.40;-1.63;5.66;3.81;-4.36
-2.40;-4.03;-14.59;6.43;3.81;1.31
-3.27;4.03;-0.87;8.06;3.81;-1.09
-2.40;-4.03;0.76;9.69;1.42;-4.36
-0.00;2.40;-0.87;6.43;-4.25;1.31
-0.87;3.16;16.01;6.43;-3.38;14.27
-2.40;-0.87;-0.87;-0.76;-5.01;1.31
-4.03;1.52;-1.63;30.60;-3.38;5.34
0.76;-0.00;2.40;-14.48;-1.85;1.31
3.16;-3.27;11.98;-2.40;1.42;5.34
2.40;2.40;-23.41;-5.66;-0.98;1.31
2.40;-0.00;1.52;15.35;3.81;1.31
1.63;-8.06;-1.63;-4.79;-6.64;10.24
2.40;-2.50;-1.63;16.12;3.81;-2.72
2.40;-2.50;-1.63;-3.16;3.05;23.09
4.03;5.55;-1.63;-0.76;2.18;-0.33
1.63;0.76;-1.63;-1.63;-0.22;-1.85
-0.00;-4.03;-2.50;37.90;31.25;-4.36
-1.63;4.03;-1.63;-0.76;11.11;-0.33
0.76;-0.00;-1.63;-0.76;12.74;-1.09
2.40;2.40;-2.50;4.03;11.11;-5.88
2.40;4.79;-1.63;1.63;5.44;0.54
2.40;-0.00;2.40;4.90;16.77;-1.09
-0.00;-0.87;-0.00;5.66;-0.98;1.31
1.63;-4.90;2.40;11.33;-3.38;1.31
-1.63;-0.00;1.52;-0.76;-13.94;-7.51
1.63;-3.27;-1.63;-1.63;-12.31;5.34
-3.27;2.40;0.76;0.00;-7.41;28.75
0.76;0.76;0.76;0.87;-0.98;2.18
2.40;-0.00;1.52;2.40;3.81;2.18
-0.00;3.16;-0.87;-4.03;1.42;0.54
-5.66;-0.00;-0.00;-2.40;-6.64;-3.48
-0.87;-3.27;-9.69;-7.19;-16.33;-0.33
-2.40;-0.87;-3.27;-16.12;-13.07;-5.88
-7.30;-4.03;-2.50;-18.51;-16.33;-6.75
-1.63;-0.00;-2.50;-7.19;-13.94;0.54
3.16;-3.27;-1.63;-3.16;-9.04;-4.36
3.16;1.52;-1.63;-6.43;-5.01;1.31
8.06;21.67;2.40;-7.19;6.21;0.54
4.03;0.76;-0.87;4.03;11.87;-9.15
-2.40;4.03;-0.87;-3.16;11.87;-1.85
-0.00;-0.00;-1.63;0.87;15.14;1.31
-2.40;-1.63;0.76;5.66;9.47;11.00
4.03;5.55;-0.87;-6.43;-3.38;12.63
-0.00;0.76;0.76;4.90;-8.28;6.97
9.69;-0.00;-0.00;7.30;-10.67;15.03
6.43;0.76;0.76;5.66;2.18;3.70
-6.43;1.52;2.40;9.69;4.68;1.31
-1.63;1.52;3.92;9.69;4.68;2.18
-8.06;2.40;3.16;4.03;6.21;1.31
-3.27;-0.87;-0.00;0.87;15.90;3.70
-4.90;-3.27;2.40;-1.63;3.81;-0.33
-7.30;-5.66;0.76;1.63;-3.38;-2.72
-2.40;0.76;-2.50;4.03;-5.01;-9.91
-1.63;-4.03;-1.63;12.96;9.47;-9.15
2.40;2.40;-1.63;-11.22;-1.85;-2.72
4.03;4.79;-1.63;-7.19;-13.07;-3.48
3.16;2.40;-1.63;-13.72;-22.00;9.37
1.63;-0.87;-2.50;-13.72;-30.82;1.31
6.43;-6.53;-1.63;-15.25;-26.03;1.31
6.43;-5.66;-1.63;-16.12;-26.03;-9.91
-3.27;2.40;-1.63;-8.82;-22.00;-10.78
-6.43;-4.03;-1.63;-12.09;-13.94;-9.15
-1.63;30.60;-1.63;-0.76;-13.07;-6.75
-0.00;4.03;-1.63;4.03;16.77;-3.48
-1.63;4.79;2.40;1.63;19.17;-10.78
0.76;0.76;3.16;8.06;23.96;1.31
0.76;2.40;5.55;7.30;21.56;10.24
-1.63;-0.87;0.76;4.90;11.11;13.39
-0.00;-5.66;3.92;1.63;8.71;11.76
-0.00;0.76;2.40;4.90;4.68;11.00
1.63;4.03;3.16;4.03;3.81;9.37
2.40;-0.87;3.16;5.66;5.44;1.31
-2.40;4.79;-1.63;-1.63;-3.38;-22.00
1.63;4.79;-2.50;0.87;-7.41;-0.33
-1.63;0.76;-1.63;0.87;-5.01;-2.72
-0.00;2.40;-2.50;8.06;-3.38;-2.72
2.40;4.03;-1.63;1.63;-0.22;-3.48
2.40;4.03;3.16;5.66;-0.22;0.54
2.40;-1.63;-0.00;9.69;3.81;-4.36
-0.00;2.40;-0.00;8.93;3.05;-24.50
-0.87;3.16;2.40;2.40;3.81;1.31
1.63;1.52;0.76;-2.40;3.81;0.54
2.40;-7.30;1.52;-8.06;-0.22;2.94
5.66;0.76;2.40;-8.06;-16.33;3.70
2.40;3.16;-0.87;-10.45;2.18;4.57
4.79;3.16;-1.63;-5.66;3.81;1.31
1.63;-0.87;0.76;-7.19;3.81;1.31
0.76;3.16;0.76;-3.16;-13.07;2.94
-4.90;-5.66;2.40;-5.66;3.81;1.31
-5.66;-0.00;-1.63;-26.57;3.81;1.31
-6.43;-2.50;-0.00;4.03;-5.01;-0.33
-5.66;2.40;-1.63;0.00;3.05;-6.75
-3.27;2.40;-1.63;1.63;-16.33;-7.51
0.76;0.76;-1.63;0.87;-12.31;-1.09
-0.00;2.40;-0.87;0.87;-6.64;-7.51
4.03;-0.00;-1.63;4.03;-1.85;-9.15
2.40;3.16;-1.63;2.40;-1.85;-9.15
-6.43;-0.00;0.76;1.63;0.65;-5.88
-0.87;-0.00;3.16;-0.76;11.11;0.54
3.16;2.40;0.76;-13.72;11.11;1.31
0.76;-2.50;-0.00;0.00;12.74;-0.33
8.06;-0.87;-1.63;5.66;4.68;2.94
11.22;4.79;0.76;0.87;3.05;11.76
11.22;2.40;-1.63;-0.76;-6.64;6.21
2.40;3.16;0.76;-3.16;22.32;8.60
3.16;-2.50;-0.87;-1.63;2.18;5.34
-6.43;-0.00;3.16;-8.06;4.68;-0.33
-4.90;-6.53;-0.00;-4.03;7.84;2.18
-4.90;3.16;2.40;-7.19;3.81;2.18
-1.63;2.40;-1.63;-4.03;-0.98;3.70
-1.63;1.52;0.76;-4.03;-9.91;2.18
-2.40;-0.87;0.76;-3.16;-13.94;1.31
2.40;0.76;-1.63;0.87;-19.49;-3.48
-1.63;-2.50;-1.63;-1.63;-22.00;-9.15
-4.90;0.76;-5.66;-0.76;-17.97;-5.88
-0.00;-6.53;-1.63;8.93;-16.33;-5.88
-0.00;2.40;-0.87;-12.85;-0.98;-5.12
-3.27;1.52;28.10;7.30;3.81;-5.88
0.76;4.03;0.76;4.03;15.90;-2.72
3.16;1.52;-1.63;-4.79;17.53;-3.48
3.16;0.76;-3.27;0.00;15.14;1.31
3.16;4.03;-1.63;1.63;4.68;14.27
16.88;4.79;2.40;4.90;6.21;13.39
8.06;4.03;-0.87;2.40;3.81;1.31
-9.69;-0.87;-1.63;7.30;1.42;-5.88
-11.33;0.76;-13.72;12.96;-6.64;1.31
-3.27;0.76;0.76;9.69;-13.07;1.31
-6.43;-16.99;6.43;-4.03;-8.28;3.70
-0.87;30.60;1.52;-4.03;-9.04;5.34
-2.40;4.79;2.40;-4.03;5.44;10.24
1.63;-2.50;2.40;-6.43;24.83;3.70
-0.00;-2.50;-12.96;-4.79;27.99;-0.33
-5.66;-7.30;-1.63;-5.66;15.14;-2.72
-6.43;2.40;-10.56;-4.79;0.65;-9.91
-2.40;-12.96;-1.63;-12.09;-16.33;-8.39
-0.87;-29.84;-1.63;-10.45;-22.76;-11.54
-0.00;0.76;-1.63;-12.09;-30.06;-11.54
1.63;0.76;-1.63;0.87;-18.73;-9.91
2.40;-3.27;-4.03;-3.16;-10.67;2.18
-4.90;-2.50;-5.66;0.87;-5.88;-12.41
6.43;-4.90;-1.63;-1.63;-11.43;-1.09
3.16;21.67;-1.63;4.03;3.81;1.31
2.40;1.52;-0.87;1.63;3.05;-1.09
4.03;-2.50;-1.63;6.43;3.81;-2.72
2.40;-26.68;-1.63;5.66;3.81;2.94
2.40;2.40;2.40;-7.19;3.81;3.70
-2.40;-0.87;1.52;5.66;4.68;-0.33
-6.43;-2.50;7.95;-4.79;4.68;5.34
-10.45;-2.50;6.43;0.00;-13.07;6.21
-1.63;2.40;1.52;4.90;3.05;-22.00
-0.00;-0.87;2.40;-0.76;-4.25;1.31
0.76;4.79;-1.63;-3.16;-9.91;2.94
2.40;4.03;-1.63;3.27;-8.28;0.54
4.79;1.52;-4.03;-2.40;-6.64;1.31
3.16;0.76;-1.63;4.90;0.65;-2.72
0.76;-0.00;-1.63;18.51;3.05;-3.48
1.63;3.16;-4.90;8.06;3.81;0.54
2.40;-1.63;-1.63;13.72;18.30;0.54
4.03;-0.00;-0.00;12.09;18.30;-2.72
1.63;-0.00;3.92;9.69;14.27;1.31
0.76;0.76;-8.93;-2.40;9.47;11.00
-2.40;0.76;-0.87;-4.79;7.84;-2.72
1.63;0.76;-1.63;-12.09;3.81;0.54
1.63;4.79;6.43;-10.45;3.81;1.31
2.40;2.40;-9.69;-8.06;-0.98;1.31
-1.63;3.16;-1.63;-6.43;-4.25;2.94
-1.63;-6.53;2.40;-3.16;-3.38;1.31
-0.00;-5.66;2.40;-8.06;-3.38;13.39
2.40;1.52;2.40;0.87;-0.98;0.54
-5.66;3.16;-15.35;4.03;-0.98;-26.03
-9.69;10.45;-0.87;0.00;4.68;-6.75
1.63;2.40;-0.00;-1.63;-0.22;-1.09
2.40;-2.50;-0.87;-25.81;-30.06;-8.39
7.19;-4.90;-0.87;-5.66;-3.38;1.31
2.40;0.76;-3.27;4.03;-21.13;-1.09
2.40;-7.30;-4.03;-3.16;-43.67;5.34
6.43;1.52;-1.63;0.00;-22.00;12.63
12.09;-3.27;-15.35;-1.63;-22.76;27.12
6.43;2.40;-0.87;1.63;-21.13;26.24
-1.63;2.40;-0.87;-1.63;-10.67;-3.48
-6.43;-2.50;2.40;-3.16;4.68;-18.84
-6.43;-4.03;-1.63;-0.76;14.27;-5.88
-6.43;2.40;3.16;8.93;17.53;-12.41
-8.93;-0.00;2.40;0.87;15.90;-2.72
-6.43;-3.27;6.43;-4.79;7.84;-2.72
-0.00;-2.50;0.76;5.66;15.90;1.31
1.63;2.40;2.40;2.40;13.50;1.31
12.85;1.52;1.52;-1.63;8.71;9.37
3.16;3.16;-0.00;-1.63;4.68;3.70
1.63;2.40;-1.63;1.63;-8.28;5.34
-0.87;1.52;-0.00;-1.63;-11.43;1.31
-2.40;-3.27;-1.63;1.63;-12.31;-0.33
-1.63;0.76;5.55;1.63;-13.07;4.57
-4.90;-2.50;-1.63;-6.43;-5.01;-3.48
-1.63;-4.90;-0.00;-4.03;1.42;-3.48
-4.90;0.76;-2.50;-1.63;7.84;1.31
2.40;4.03;-2.50;0.00;11.11;13.39
2.40;-28.21;-1.63;0.87;12.74;-11.54
2.40;-2.50;-1.63;0.00;8.71;-7.51
2.40;3.16;-0.87;4.90;31.25;1.31
3.16;2.40;0.76;4.90;3.81;1.31
5.66;4.03;-0.00;2.40;3.81;5.34
2.40;3.16;-1.63;0.87;7.08;3.70
0.76;-0.87;-0.00;-1.63;3.81;-24.50
0.76;4.79;-1.63;-0.76;1.42;-6.75
0.76;0.76;6.43;2.40;-3.38;13.39
2.40;-3.27;6.43;-1.63;-7.41;5.34
-0.00;3.16;7.19;-4.03;-8.28;5.34
0.76;0.76;3.16;7.30;6.21;0.54
-4.90;-8.06;12.85;14.48;12.74;-0.33
-4.90;4.03;-25.05;14.48;6.21;-9.91
2.40;-0.87;-15.35;-4.03;2.18;25.48
2.40;0.76;-1.63;-5.66;1.42;0.54
2.40;-4.03;-2.50;-16.88;-16.33;-9.15
-0.00;-4.03;11.22;-16.12;-17.97;-9.15
2.40;13.61;-1.63;-16.12;-17.10;-4.36
2.40;2.40;2.40;-16.12;-18.73;-2.72
-0.00;23.30;-2.50;-4.79;-20.36;-2.72
-3.27;2.40;-0.87;-4.03;-11.43;-4.36
-4.90;-2.50;-2.50;-1.63;-16.33;-7.51
-2.40;2.40;-2.50;-5.66;-1.85;-3.48
0.76;-19.38;-1.63;-20.15;3.81;-5.88
0.76;-3.27;-0.00;7.30;8.71;-1.85
-2.40;-2.50;0.76;9.69;11.11;-6.75
0.76;6.43;-1.63;5.66;-6.64;-4.36
-4.03;-4.03;2.40;-2.40;3.81;1.31
-0.87;-0.00;-0.00;15.35;11.87;6.21
-1.63;-2.50;3.92;7.30;5.44;27.12
-1.63;3.16;0.76;-0.76;2.18;6.21
0.76;18.51;-1.63;-11.22;-8.28;4.57
-1.63;2.40;0.76;-1.63;-0.98;4.57
15.25;18.51;2.40;-2.40;2.18;16.66
25.81;-0.00;-1.63;2.40;4.68;14.27
16.12;-21.02;-1.63;0.87;30.38;1.31
0.76;3.16;-4.03;1.63;20.80;-5.88
-2.40;2.40;-3.27;4.03;25.59;-5.88
-8.06;3.16;-1.63;7.30;27.99;23.09
-8.06;0.76;-2.50;-10.45;19.17;-7.51
-9.69;3.16;-1.63;1.63;11.87;-9.15
-8.93;-4.03;-1.63;6.43;3.05;-9.15
-8.06;-29.84;-25.05;0.00;0.65;-15.57
-4.90;-2.50;0.76;5.66;-11.43;23.09
1.63;-6.53;-0.87;12.09;-18.73;9.37
4.03;4.79;3.16;8.93;-22.76;2.18
2.40;0.76;2.40;-4.03;-32.45;11.76
2.40;-13.72;-1.63;-16.12;-31.58;4.57
-4.90;3.16;-0.87;-20.15;-22.00;9.37
-0.00;-0.00;3.16;-16.12;-16.33;0.54
-3.27;8.82;3.16;-16.12;-8.28;-11.54
1.63;-1.63;-1.63;-14.48;3.81;1.31
-1.63;-8.06;-2.50;-4.79;3.81;-14.81
-3.27;-2.50;-0.00;-2.40;3.05;-2.72
-2.40;-3.27;-1.63;-3.16;-7.41;-7.51
-0.00;0.76;-2.50;2.40;1.42;-11.54
3.16;0.76;-5.66;4.90;-0.22;-15.57
2.40;-4.03;-1.63;0.87;4.68;-11.54
-0.00;15.25;-1.63;1.63;2.18;1.31
2.40;-34.74;-1.63;-8.06;-5.01;1.31
2.40;3.16;-1.63;37.90;-0.98;2.94
16.12;-2.50;-0.87;5.66;-1.85;6.97
2.40;-2.50;-0.00;1.63;3.81;1.31
-5.66;-5.66;0.76;0.87;4.68;0.54
-3.27;-18.62;-1.63;9.69;6.21;-5.88
-1.63;0.76;2.40;2.40;14.27;0.54
1.63;-2.50;0.76;2.40;11.11;-13.94
-8.06;-2.50;-0.87;5.66;19.17;-1.09
-1.63;-2.50;-1.63;5.66;15.90;2.18
-1.63;2.40;6.43;0.87;26.35;1.31
1.63;10.45;1.52;-3.16;-0.22;6.97
2.40;-0.87;2.40;0.87;-8.28;1.31
-1.63;1.52;-1.63;-0.76;-0.98;-1.09
-3.27;-28.21;-0.87;14.48;-9.04;1.31
-4.90;-2.50;-1.63;0.87;-3.38;-0.33
-2.40;-0.87;-16.12;-6.43;-13.94;-7.51
2.40;-2.50;-4.90;-5.66;-9.04;-2.72
4.03;-7.30;-3.27;-8.06;-17.97;-0.33
2.40;28.97;-3.27;-2.40;-21.13;-9.15
2.40;-0.87;-1.63;-7.19;-13.07;-4.36
4.03;4.79;-0.87;-13.72;-4.25;-5.88
-0.87;4.03;-1.63;2.40;3.81;0.54
2.40;2.40;-1.63;2.40;11.87;1.31
6.43;3.16;-0.87;3.27;17.53;2.18
2.40;-6.53;2.40;8.93;44.10;1.31
2.40;-0.87;8.82;24.94;21.56;4.57
-0.87;-21.02;0.76;19.38;25.59;1.31
-1.63;4.79;2.40;20.91;5.44;2.94
-8.93;-3.27;3.92;5.66;-7.41;2.18
-8.06;0.76;1.52;-8.82;-40.51;-0.33
-11.33;-4.03;-1.63;-14.48;-26.79;1.31
-8.93;3.16;2.40;-8.82;-22.76;0.54
-3.27;-3.27;-7.30;-13.72;-19.49;-21.24
-0.00;23.30;-1.63;-4.79;-4.25;-3.48
-1.63;-8.06;-2.50;-8.06;15.90;-5.88
0.76;-0.87;-1.63;-12.09;-5.01;-8.39
6.43;-1.63;-3.27;-15.25;-1.85;-1.09
15.25;2.40;-4.03;-33.00;-32.45;1.31
8.06;-0.00;-1.63;1.63;-13.94;-2.72
4.79;-0.00;-0.87;1.63;-19.49;1.31
4.79;0.76;-1.63;4.90;-18.73;1.31
1.63;4.03;1.52;2.40;-16.33;-7.51
-0.00;-2.50;-0.87;4.03;-7.41;-8.39
-0.00;-5.66;-0.00;7.30;3.81;-4.36
2.40;-4.03;-0.00;8.93;11.11;-2.72
-0.00;-0.87;3.16;7.30;16.77;6.97
2.40;2.40;3.16;0.87;15.90;5.34
-0.00;-0.00;3.92;-0.76;17.53;9.37
4.03;4.03;3.16;-4.03;17.53;15.79
4.03;4.03;1.52;2.40;22.32;11.00
-2.40;-4.03;1.52;7.30;27.99;2.18
-3.27;-6.53;-0.87;7.30;15.14;3.70
-0.00;4.79;-0.87;2.40;3.81;1.31
2.40;0.76;0.76;0.00;14.27;0.54
0.76;4.79;-1.63;0.87;-7.41;0.54
1.63;2.40;-1.63;-0.76;-11.43;-6.75
0.76;-4.90;-2.50;20.15;-17.10;-6.75
-0.00;2.40;19.28;-0.76;-16.33;-5.88
-4.90;-3.27;-2.50;-2.40;-10.67;-2.72
-4.90;-0.00;-2.50;10.45;2.18;-4.36
-6.43;-2.50;-1.63;-25.81;15.14;-6.75
-1.63;4.03;-0.00;1.63;29.62;3.70
16.12;3.16;-1.63;-3.16;29.62;4.57
6.43;4.03;7.19;-6.43;28.86;-2.72
2.40;4.79;3.16;-8.06;14.27;-3.48
0.76;-0.87;1.52;-10.45;-0.98;27.12
-7.30;20.04;0.76;-3.16;-17.97;1.31
-3.27;-0.87;-0.00;-4.03;-34.09;2.18
-2.40;-4.03;-0.00;-1.63;-42.91;1.31
-7.30;-2.50;0.76;12.96;-27.55;-1.85
-6.43;3.16;-0.00;20.15;-30.82;1.31
0.76;-4.90;-1.63;0.87;-16.33;-4.36
-6.43;-0.00;-1.63;5.66;-6.64;-2.72
-8.06;-0.87;-3.27;-4.03;3.81;-5.88
-2.40;-2.50;-1.63;-1.63;16.77;-1.09
0.76;-5.66;-4.03;-3.16;25.59;0.54
4.79;-3.27;-1.63;0.87;19.93;-3.48
3.16;-2.50;-1.63;-1.63;16.77;-4.36
-4.90;-0.87;-1.63;-3.16;5.44;-10.78
-0.87;0.76;-1.63;-4.03;-3.38;-6.75
0.76;-2.50;-1.63;21.78;-12.31;-3.48
-2.40;2.40;-1.63;40.29;-17.10;-9.91
0.76;-4.03;0.76;-4.79;-11.43;-2.72
2.40;2.40;-1.63;2.40;-9.04;-1.09
2.40;-3.27;-4.90;5.66;-5.01;2.18
4.79;2.40;-0.00;4.90;3.81;3.70
2.40;4.03;3.92;9.69;7.84;5.34
0.76;2.40;3.92;0.00;3.81;6.21
-0.00;-2.50;3.16;1.63;-0.22;-1.09
-4.90;4.03;2.40;-0.76;3.81;2.94
-5.66;-0.87;-0.87;0.87;5.44;10.24
-4.90;-3.27;-1.63;0.87;5.44;11.00
-3.27;-0.00;0.76;-1.63;3.81;-0.33
-4.90;21.67;-0.00;-3.16;3.05;-0.33
-8.06;3.16;-1.63;-3.16;3.05;-4.36
-2.40;-4.03;-1.63;-2.40;11.11;-7.51
-4.90;0.76;-1.63;1.63;15.90;-8.39
3.16;-0.87;-1.63;-1.63;6.21;0.54
2.40;1.52;-4.03;1.63;16.77;0.54
1.63;4.03;-1.63;-2.40;16.77;-0.33
14.48;-0.00;3.16;-0.76;11.87;2.94
6.43;-2.50;-1.63;-28.97;-3.38;-6.75
0.76;2.40;-1.63;12.96;-14.70;-3.48
0.76;-4.03;-1.63;-1.63;-26.03;2.94
2.40;0.76;-3.27;1.63;-34.85;1.31
4.03;17.64;-1.63;-4.79;-43.67;9.37
4.79;-2.50;0.76;-0.76;-36.48;0.54
0.76;2.40;3.92;-7.19;-27.55;1.31
-0.00;3.16;-0.00;-3.16;-9.04;2.18
-3.27;-3.27;6.43;1.63;15.90;6.21
0.76;-0.00;11.98;8.06;25.59;10.24
0.76;0.76;3.16;0.87;16.77;3.70
-4.90;-6.53;-1.63;9.69;15.90;-0.33
0.76;-4.03;-0.00;7.30;6.21;2.94
14.48;0.76;-3.27;-1.63;4.68;3.70
3.16;1.52;-1.63;-5.66;3.05;6.21
2.40;-0.00;-3.27;-13.72;0.65;-2.72
-8.06;-0.87;-3.27;-16.88;-4.25;-4.36
-4.90;3.16;-1.63;-34.63;-4.25;-11.54
-11.33;1.52;-0.87;-8.06;-0.22;-12.41
-6.43;2.40;-1.63;-1.63;6.21;-5.88
1.63;2.40;-2.50;8.93;11.87;-4.36
0.76;3.16;-1.63;13.72;14.27;-1.85
-1.63;4.79;-0.00;13.72;11.87;1.31
-1.63;-2.50;-3.27;6.43;7.84;1.31
-5.66;-3.27;2.40;4.90;25.59;1.31
-4.90;-0.87;-0.00;-2.40;3.81;5.34
2.40;0.76;3.16;-3.16;-0.98;5.34
2.40;4.79;0.76;-1.63;-3.38;3.70
1.63;0.76;0.76;-4.03;-6.64;3.70
2.40;-2.50;-0.87;-2.40;-8.28;1.31
1.63;-0.87;-0.00;-16.12;-13.94;1.31
2.40;-2.50;-1.63;-3.16;-7.41;5.34
-1.63;-0.00;-1.63;-16.12;-3.38;-5.88
-3.27;-0.00;-1.63;11.33;-0.22;-2.72
-0.00;-3.27;-1.63;0.00;-1.85;-1.09
-1.63;2.40;7.95;1.63;-5.01;10.24
-6.43;4.79;-1.63;1.63;-6.64;-1.09
-1.63;4.79;-1.63;-3.16;-10.67;-0.33
3.16;4.79;-3.27;2.40;2.18;16.66
2.40;3.16;-1.63;21.78;16.77;-0.33
4.03;0.76;-1.63;12.09;11.11;1.31
6.43;-6.53;-1.63;1.63;4.68;1.31
3.16;4.79;-1.63;-3.16;3.81;4.57
1.63;0.76;1.52;-15.25;2.18;2.94
7.19;2.40;-1.63;-16.12;-4.25;6.97
2.40;-0.87;-0.87;-15.25;-5.01;1.31
-1.63;0.76;-1.63;-16.12;-6.64;2.18
-4.90;-0.00;-0.87;-24.94;-13.07;2.18
1.63;-5.66;-0.00;-4.79;-12.31;-2.72
-4.90;-2.50;3.92;-3.16;-9.91;1.31
-4.90;-4.90;0.76;1.63;-9.91;1.31
-4.90;-3.27;0.76;8.06;-16.33;-1.09
-5.66;-5.66;-0.00;8.93;-5.01;0.54
-1.63;-4.90;-1.63;4.90;-4.25;-6.75
2.40;-3.27;-0.00;-4.79;-4.25;-7.51
-0.00;4.03;-1.63;-3.16;4.68;-3.48
4.79;4.03;-3.27;2.40;7.84;-0.33
-0.00;-0.87;-1.63;0.87;15.14;-1.85
0.76;-3.27;2.40;-2.40;16.77;1.31
-3.27;3.16;0.76;-2.40;14.27;-2.72
-1.63;0.76;3.16;2.40;7.84;-2.72
2.40;2.40;-0.87;4.03;7.84;0.54
2.40;-2.50;-1.63;7.30;3.81;-11.54
7.19;-5.66;-0.00;0.00;-9.04;5.34
8.06;0.76;-0.00;4.90;11.87;6.21
12.85;4.79;-1.63;4.03;9.47;11.76
2.40;2.40;0.76;4.90;4.68;1.31
-11.33;-0.00;2.40;2.40;3.05;-25.26
-11.33;-2.50;1.52;-1.63;-24.39;-4.36
-4.90;4.03;-0.87;-5.66;-11.43;-2.72
-2.40;-5.66;-0.00;-1.63;-13.94;-0.33
-2.40;-2.50;0.76;-10.45;-19.49;-2.72
2.40;-0.00;-1.63;-4.03;-16.33;0.54
2.40;0.76;-0.00;-8.06;-19.49;5.34
12.09;-0.00;-1.63;-8.06;-14.70;39.97
12.85;1.52;-2.50;-5.66;-6.64;5.34
9.69;-4.03;-3.27;-7.19;1.42;2.94
1.63;0.76;-5.66;-8.82;3.81;-1.09
1.63;-2.50;-3.27;0.87;3.05;0.54
-0.00;0.76;2.40;2.40;3.81;1.31
8.06;2.40;-2.50;9.69;6.21;1.31
6.43;0.76;2.40;5.66;-6.64;-1.09
-2.40;-8.06;-0.00;9.69;15.90;-9.15
-5.66;-4.90;-0.00;9.69;24.83;-5.88
-6.43;0.76;-0.00;10.45;9.47;-6.75
-8.93;-1.63;-1.63;4.90;3.81;-5.88
-4.90;-3.27;2.40;8.06;-9.04;1.31
-4.90;-0.00;-0.00;-4.03;-11.43;3.70
-8.93;-2.50;-0.87;-10.45;-10.67;2.94
-4.90;2.40;0.76;-6.43;-6.64;1.31
-4.90;1.52;2.40;-5.66;3.81;1.31
-4.90;0.76;0.76;-2.40;-3.38;1.31
-0.00;-0.00;-15.35;-3.16;3.81;27.88
2.40;-2.50;-1.63;8.06;-3.38;-2.72
1.63;-4.03;-1.63;2.40;-13.07;-7.51
2.40;-0.00;-1.63;1.63;8.71;-6.75
-0.00;4.03;-2.50;-4.03;-22.00;-19.60
1.63;4.79;-2.50;-4.03;-26.03;-6.75
-6.43;-0.87;-1.63;-8.82;-7.41;-1.09
0.76;-0.00;-2.50;-33.00;2.18;-2.72
2.40;0.76;-2.50;-1.63;9.47;1.31
2.40;-3.27;-2.50;4.90;19.17;1.31
5.66;-2.50;-0.87;5.66;7.84;2.94
2.40;2.40;-0.87;9.69;17.53;1.31
2.40;-8.93;-0.87;9.69;17.53;6.21
4.03;-0.00;2.40;9.69;11.87;9.37
-2.40;-0.00;3.16;-17.75;6.21;2.94
-5.66;0.76;-0.00;0.87;-0.98;7.73
-6.43;-2.50;0.76;0.87;5.44;5.34
-8.06;0.76;-0.00;-7.19;2.18;2.18
-12.09;3.16;3.92;-7.19;1.42;3.70
-4.90;-2.50;1.52;-6.43;-0.98;-0.33
2.40;-7.30;-1.63;-0.76;-8.28;0.54
0.76;-2.50;-1.63;-7.19;-17.10;-4.36
2.40;-8.93;-1.63;-7.19;-22.00;-13.94
4.03;-4.03;-1.63;-7.19;-26.79;-5.88
9.69;2.40;-3.27;-5.66;-26.03;2.94
-0.87;-3.27;-4.03;-3.16;-22.00;-9.91
-8.06;2.40;-1.63;-5.66;-22.00;-6.75
-2.40;-3.27;-0.87;-8.06;-19.49;-9.91
-4.90;-0.00;-0.00;6.43;-3.38;-6.75
-6.43;0.76;-2.50;-0.76;3.81;-11.54
-5.66;-8.06;-0.87;8.93;28.86;-6.75
2.40;-3.27;-0.00;-8.06;29.62;0.54
2.40;3.16;-1.63;4.90;16.77;4.57
3.16;-2.50;-1.63;-0.76;15.14;6.97
-3.27;-3.27;-1.63;13.72;22.32;34.30
-1.63;0.76;5.55;13.72;18.30;6.21
4.03;2.40;2.40;8.93;15.90;15.79
9.69;-0.00;3.16;-3.16;18.30;26.24
4.79;3.16;3.16;-8.82;13.50;16.66
2.40;4.79;2.40;-10.45;5.44;5.34
5.66;-0.87;-1.63;-12.85;-5.01;2.18
12.85;-0.87;-1.63;-10.45;-16.33;-5.88
-1.63;4.79;-2.50;13.72;-13.94;-12.41
-8.06;-2.50;-3.27;-3.16;-22.00;-12.41
-8.93;-8.06;-1.63;1.63;-14.70;-5.12
-1.63;-3.27;-0.87;5.66;-9.91;1.31
1.63;-7.30;0.76;7.30;0.65;-4.36
-0.00;3.16;-0.87;9.69;11.87;-0.33
5.66;4.79;5.55;4.90;12.74;-6.75
2.40;4.79;-0.87;0.87;4.68;17.42
2.40;0.76;3.92;-1.63;3.81;16.66
-1.63;1.52;0.76;-1.63;-4.25;0.54
5.66;-30.71;-0.00;-4.03;-9.04;-9.91
2.40;3.16;-0.87;1.63;-17.97;-1.09
-5.66;-4.90;-0.00;-2.40;17.53;18.30
-5.66;-0.87;-1.63;-2.40;-4.25;-0.33
-8.06;-2.50;-0.87;-0.76;-0.22;-4.36
-5.66;-3.27;-1.63;-29.84;-0.22;-0.33
-1.63;-8.06;-1.63;-31.36;-0.98;-2.72
-1.63;-4.03;-2.50;-3.16;5.44;0.54
0.76;2.40;-1.63;-1.63;16.77;-26.90
1.63;-10.56;-1.63;4.90;48.13;1.31
2.40;28.10;-1.63;2.40;4.68;1.31
1.63;16.88;-2.50;-15.25;3.81;1.31
7.19;7.19;-1.63;-0.76;1.42;-11.54
2.40;-5.66;-1.63;-1.63;-0.22;5.34
2.40;13.61;-2.50;-4.03;1.42;1.31
-0.00;0.76;1.52;-2.40;4.68;-6.75
2.40;5.55;2.40;-2.40;3.81;-26.03
-0.00;3.16;-1.63;-1.63;3.81;-5.88
-3.27;4.79;-1.63;-5.66;-3.38;-2.72
-0.00;-4.03;1.52;2.40;-10.67;0.54
-2.40;-0.87;3.92;2.40;-20.36;-3.48
2.40;-3.27;2.40;18.51;-22.00;-1.09
1.63;-0.00;2.40;-3.16;-13.94;-1.09
4.79;-0.00;2.40;-3.16;-37.24;1.31
0.76;-0.00;3.92;-4.03;-5.01;9.37
-2.40;2.40;2.40;-2.40;6.21;11.76
0.76;-5.66;-0.87;-1.63;9.47;1.31
1.63;-2.50;-2.50;5.66;24.83;1.31
-1.63;-4.03;-1.63;9.69;27.99;-1.09
2.40;-2.50;-0.87;2.40;30.38;18.30
3.16;2.40;-1.63;-5.66;29.62;-28.53
0.76;-2.50;-1.63;-2.40;21.56;-3.48
2.40;-0.00;-0.87;-8.06;4.68;-24.50
1.63;-5.66;-1.63;-4.03;-10.67;-6.75
-0.87;-5.66;-2.50;-4.79;-29.19;-7.51
-0.87;-3.27;-1.63;-4.03;-42.04;-6.75
0.76;-10.56;-1.63;-0.76;-45.30;-7.51
0.76;31.36;-1.63;7.30;-40.51;-9.15
-8.06;-10.56;1.52;-0.76;-32.45;-15.57
-6.43;-0.00;-1.63;-0.76;-22.00;-5.88
-5.66;4.79;-1.63;-6.43;-0.22;-2.72
2.40;30.60;2.40;-2.40;11.87;27.88
4.79;3.16;-0.00;-2.40;12.74;1.31
3.16;-2.50;10.45;0.87;5.44;-0.33
-0.00;0.76;-0.00;0.87;3.81;35.17
2.40;-26.68;-0.00;2.40;11.11;15.03
12.85;-0.00;-0.00;-0.76;-5.01;18.30
5.66;-28.21;-0.00;8.06;20.80;3.70
2.40;4.03;-3.27;2.40;23.96;0.54
-3.27;-4.03;-0.87;7.30;22.32;-2.72
-8.06;30.60;-1.63;1.63;19.17;-3.48
-10.45;0.76;-1.63;-3.16;3.81;-5.88
-6.43;-0.00;-1.63;-7.19;-0.22;-5.88
-8.06;-4.03;-0.00;-5.66;-8.28;-4.36
-5.66;-3.27;-1.63;-7.19;-13.94;-2.72
-0.00;-29.08;-1.63;-4.03;-20.36;-5.88
5.66;-10.56;-1.63;-4.79;-19.49;1.31
3.16;0.76;-0.87;-24.94;-16.33;3.70
3.16;4.79;-0.87;4.90;-3.38;5.34
8.06;-4.03;-0.87;7.30;0.65;19.82
12.85;-31.47;-0.87;10.45;4.68;15.79
13.72;22.54;0.76;4.90;4.68;2.94
-0.00;4.79;0.76;-4.79;5.44;1.31
-12.09;-25.81;2.40;2.40;3.81;-0.33
-8.93;-2.50;0.76;-0.76;19.17;1.31
-6.43;-10.56;5.55;-36.26;7.84;-0.33
-8.93;-2.50;3.16;-3.16;12.74;1.31
-5.66;-26.68;-1.63;-1.63;7.84;-6.75
-2.40;-11.33;-1.63;2.40;3.05;-2.72
1.63;-0.87;-1.63;-3.16;-0.22;2.18
4.79;3.16;-1.63;-3.16;-10.67;1.31
5.66;0.76;-1.63;-4.03;-13.07;-4.36
-0.00;-0.00;-1.63;-4.03;-21.13;-7.51
-5.66;4.79;-2.50;-1.63;-16.33;-1.85
-8.06;0.76;-1.63;-0.76;-14.70;-5.88
-1.63;14.48;-2.50;-1.63;-11.43;-1.85
-2.40;-2.50;-1.63;2.40;3.81;-2.72
-0.00;2.40;0.76;9.69;5.44;0.54
0.76;1.52;0.76;10.45;6.21;-2.72
1.63;-0.87;3.16;-1.63;9.47;2.18
2.40;0.76;-0.00;-8.06;8.71;2.18
2.40;0.76;-0.00;-5.66;11.11;11.00
-1.63;-2.50;-0.00;-14.48;-10.67;1.31
0.76;-2.50;3.16;-12.85;19.93;6.21
-2.40;-2.50;3.16;-7.19;4.68;4.57
-1.63;0.76;-1.63;-4.03;1.42;9.37
2.40;-3.27;-0.00;-4.03;-0.98;2.94
2.40;4.03;2.40;6.43;11.87;2.94
0.76;-4.03;-1.63;7.30;2.18;-1.85
-2.40;0.76;-4.03;9.69;6.21;-7.51
2.40;-0.87;0.76;7.30;-0.98;-5.88
-0.00;4.03;-1.63;-31.36;-17.97;-3.48
2.40;-5.66;-0.00;-3.16;-22.76;-9.91
1.63;-4.03;-1.63;-3.16;-29.19;-6.75
2.40;0.76;-1.63;-3.16;-23.52;-1.09
2.40;4.03;-0.00;-4.03;-13.07;1.31
1.63;-0.87;2.40;-0.76;-4.25;1.31
1.63;4.79;1.52;-0.76;3.81;-3.48
-0.87;-0.00;-1.63;-4.03;17.53;1.31
1.63;-4.03;-1.63;34.63;21.56;1.31
-3.27;0.76;-0.00;4.03;15.14;-0.33
2.40;3.16;-0.87;-0.76;5.44;-12.41
-4.90;0.76;-0.87;-3.16;11.11;5.34
-4.90;2.40;-5.66;-0.76;-12.31;3.70
-2.40;1.52;0.76;-1.63;-17.10;1.31
-2.40;-2.50;-1.63;-5.66;-18.73;2.18
2.40;-7.30;-1.63;-10.45;-5.88;1.31
2.40;-6.53;-1.63;1.63;5.44;2.18
3.16;-3.27;-1.63;-1.63;6.21;-3.48
-1.63;4.79;1.52;-8.06;-0.22;-9.15
-5.66;-0.00;-1.63;-5.66;-10.67;-6.75
-1.63;-0.00;-4.03;-26.57;-16.33;-7.51
-3.27;-2.50;-1.63;-8.06;-19.49;19.82
0.76;-4.03;0.76;-4.79;-25.16;0.54
4.79;0.76;-0.00;-4.03;-26.79;1.31
10.45;-3.27;0.76;0.87;-12.31;2.94
17.75;-0.00;-3.27;-3.16;-3.38;1.31
2.40;4.79;0.76;6.43;12.74;-7.51
-1.63;-2.50;-0.87;4.03;16.77;-4.36
1.63;2.40;2.40;8.93;15.90;-1.85
-1.63;0.76;-0.87;8.93;15.90;-1.09
-8.06;-4.03;-1.63;5.66;15.14;-0.33
-8.06;-0.87;2.40;2.40;14.27;5.34
0.76;4.03;2.40;2.40;1.42;11.76
3.16;2.40;0.76;4.03;3.81;16.66
13.72;4.79;2.40;-12.85;6.21;27.12
19.28;3.16;-0.00;-3.16;-0.22;27.12
1.63;0.76;0.76;-3.16;-0.98;10.24
-8.06;-0.87;-0.87;0.87;4.68;-22.00
4.79;-0.00;-1.63;-2.40;6.21;-2.72
-1.63;0.76;-1.63;-2.40;-17.10;1.31
-4.90;4.79;-1.63;-2.40;3.81;-7.51
-3.27;-8.93;-5.66;4.03;2.18;1.31
-3.27;4.03;-0.87;0.87;3.81;-5.88
2.40;4.03;0.76;0.87;3.05;-1.09
1.63;-2.50;-0.00;4.90;3.05;-4.36
-0.00;1.52;-1.63;2.40;-3.38;-3.48
2.40;1.52;-1.63;8.06;-6.64;-1.09
-3.27;-0.87;-0.00;24.94;-5.01;-5.88
-4.90;-0.00;2.40;28.21;-5.01;-1.09
1.63;-0.00;-1.63;-3.16;-5.01;0.54
-6.43;-4.90;-0.87;-3.16;-5.88;1.31
-0.00;-0.00;0.76;-2.40;2.18;5.34
4.03;2.40;-0.00;1.63;-0.22;10.24
2.40;0.76;2.40;0.00;3.81;5.34
-2.40;0.76;0.76;-0.76;2.18;2.18
-5.66;-0.87;-0.87;-3.16;4.68;0.54
-0.00;-0.00;2.40;-11.22;5.44;2.18
0.76;-4.03;-1.63;-4.79;4.68;2.94
2.40;4.03;-2.50;18.51;5.44;-5.88
1.63;0.76;-2.50;-3.16;11.87;-2.72
2.40;0.76;-1.63;-3.16;11.11;-3.48
3.16;2.40;-1.63;2.40;11.87;-7.51
0.76;4.03;-0.00;7.30;3.81;0.54
2.40;0.76;-0.87;10.45;4.68;-2.72
2.40;4.79;-0.87;11.33;-15.46;-5.88
0.76;0.76;-1.63;7.30;-9.91;-0.33
2.40;3.16;2.40;-1.63;-22.00;-1.09
1.63;-0.87;-1.63;-12.09;-30.82;1.31
-0.00;2.40;-1.63;-11.22;-26.79;3.70
1.63;0.76;-0.00;-16.12;-23.52;4.57
0.76;2.40;-1.63;-16.12;-17.10;2.18
1.63;2.40;2.40;-4.79;-9.04;4.57
-1.63;-5.66;2.40;-1.63;3.81;3.70
1.63;1.52;-0.87;-3.16;8.71;6.97
4.03;2.40;0.76;2.40;7.84;3.70
3.16;-6.53;-0.00;2.40;6.21;1.31
1.63;-3.27;-2.50;-10.45;-0.98;1.31
-0.87;-2.50;-1.63;7.30;7.08;-1.09
0.76;-0.00;-1.63;29.84;9.47;1.31
3.16;1.52;-1.63;8.06;29.62;-5.88
4.03;3.16;-1.63;9.69;29.62;-1.85
-2.40;-2.50;0.76;8.93;24.83;-26.03
-4.90;-3.27;-1.63;4.03;-8.28;-1.09
-4.90;2.40;-1.63;4.90;-3.38;-11.54
1.63;4.79;-2.50;-3.16;-20.36;-3.48
6.43;-2.50;-1.63;-3.16;-34.85;2.18
6.43;4.79;-0.87;-1.63;-38.88;-25.26
4.79;8.82;-1.63;-7.19;-33.21;-3.48
3.16;3.16;2.40;-8.06;-22.00;2.94
16.88;-0.87;2.40;1.63;-5.01;5.34
3.16;3.16;2.40;1.63;3.81;1.31
-4.90;28.97;-1.63;-5.66;-0.22;1.31
-9.69;-0.00;1.52;-1.63;3.81;2.94
-5.66;2.40;2.40;-5.66;3.05;1.31
-5.66;2.40;2.40;-1.63;3.05;0.54
-0.87;0.76;2.40;-5.66;-1.85;2.94
1.63;-5.66;-0.87;-4.03;8.71;2.18
2.40;-3.27;-0.87;-4.03;3.81;12.63
8.82;1.52;-1.63;-1.63;3.81;1.31
4.79;-0.87;-0.87;7.30;-0.22;-0.33
0.76;-4.03;-1.63;-2.40;38.44;-11.54
-0.87;-4.90;-1.63;9.69;16.77;-9.91
-7.30;-10.56;-1.63;9.69;28.86;0.54
-4.90;-0.87;-0.87;6.43;18.30;-5.88
-9.69;2.40;-0.87;2.40;5.44;-10.78
-9.69;1.52;3.92;1.63;1.42;-6.75
-1.63;3.16;-0.00;1.63;-7.41;-0.33
2.40;2.40;-0.87;-4.79;-10.67;1.31
2.40;-2.50;-0.00;-4.03;-10.67;1.31
8.06;0.76;-1.63;-3.16;-9.04;3.70
5.66;-2.50;-1.63;-1.63;-8.28;12.63
4.79;-1.63;-0.87;-4.03;-5.01;23.09
14.48;1.52;3.92;2.40;-0.22;29.51
19.28;4.79;2.40;0.87;3.81;15.79
-3.27;-3.27;3.16;5.66;-13.94;0.54
-11.33;-2.50;-1.63;2.40;33.65;0.54
-8.06;-4.03;-3.27;0.00;7.08;-0.33
-2.40;1.52;-3.27;-0.76;6.21;-5.88
-4.90;-5.66;-3.27;-1.63;3.81;-9.15
-2.40;-0.00;-4.03;2.40;1.42;-7.51
3.16;-2.50;-1.63;-7.19;-6.64;-9.15
2.40;-0.00;-1.63;-4.03;-3.38;-1.09
3.16;0.76;-1.63;4.03;-4.25;-3.48
4.03;3.16;-0.87;0.87;-7.41;-3.48
1.63;4.79;-0.87;0.87;-7.41;0.54
-0.00;3.16;-1.63;-0.76;2.18;-3.48
-4.90;-4.90;0.76;4.03;3.81;-22.87
-7.30;-0.87;0.76;-2.40;3.81;0.54
0.76;0.76;0.76;30.60;-0.22;-1.09
0.76;-2.50;-0.00;-4.03;-4.25;1.31
2.40;-3.27;2.40;1.63;-0.98;5.34
-3.27;-0.87;0.76;-0.76;-5.01;3.70
0.76;3.16;3.16;-1.63;-9.91;6.21
-2.40;1.52;1.52;0.00;-4.25;0.54
2.40;-0.00;-0.00;-1.63;-22.00;3.70
3.16;-2.50;-0.87;1.63;8.71;2.18
-0.00;3.16;1.52;-26.57;9.47;1.31
0.76;4.03;-1.63;1.63;9.47;-3.48
0.76;2.40;-1.63;17.75;5.44;-2.72
-0.87;4.03;-1.63;2.40;3.81;-6.75
-2.40;5.55;-2.50;5.66;-1.85;-6.75
-3.27;3.16;-2.50;12.09;-3.38;-5.88
0.76;-4.03;-1.63;-4.03;3.81;-1.09
-6.43;-3.27;-1.63;-7.19;4.68;-1.85
-3.27;9.58;-1.63;-4.03;-1.85;0.54
2.40;-0.87;0.76;-4.03;-5.01;-30.06
3.16;4.79;0.76;-3.16;-8.28;1.31
2.40;-5.66;-0.00;-1.63;-11.43;28.75
2.40;-0.00;-0.00;-2.40;-12.31;2.18
-1.63;4.03;-1.63;0.00;-16.33;2.18
0.76;-2.50;0.76;1.63;-0.98;8.60
1.63;-0.00;-0.00;-3.16;3.81;1.31
-5.66;-32.23;0.76;4.03;6.21;-12.41
-1.63;-3.27;-0.87;-3.16;7.84;0.54
-6.43;2.40;1.52;-1.63;5.44;2.18
2.40;1.52;1.52;-3.16;-6.64;-1.85
1.63;-5.66;-0.00;7.30;-13.94;0.54
2.40;-6.53;-1.63;14.48;-1.85;0.54
2.40;4.03;-1.63;10.45;1.42;-4.36
1.63;-2.50;-3.27;5.66;-17.97;-7.51
3.16;3.16;-1.63;-7.19;-21.13;-1.09
2.40;-0.00;-4.03;-15.25;-24.39;6.21
12.09;3.16;0.76;-24.94;-18.73;6.97
12.85;2.40;-2.50;-16.12;-4.25;-0.33
3.16;5.55;-3.27;-8.06;3.81;-1.85
2.40;3.16;0.76;-4.03;12.74;16.66
-6.43;-3.27;2.40;-0.76;15.90;-2.72
-5.66;-3.27;-1.63;4.90;30.38;-9.15
-7.30;-0.00;-1.63;12.09;-0.22;-7.51
-19.38;-0.00;0.76;8.93;9.47;-6.75
-9.69;-6.53;-0.00;8.06;11.87;1.31
-11.33;4.79;3.16;4.90;6.21;-12.41
-5.66;-0.00;3.92;0.87;-0.98;3.70
1.63;1.52;-0.87;9.69;-3.38;10.24
2.40;-0.87;2.40;5.66;-0.98;2.18
20.91;28.97;-0.00;7.30;-7.41;27.12
20.91;-0.00;-0.87;-3.16;-8.28;10.24
4.79;-3.27;-0.87;-2.40;-0.98;5.34
1.63;-3.27;-1.63;-3.16;-4.25;-7.51
-4.90;6.43;-4.03;-3.16;-0.98;-11.54
-3.27;-2.50;-2.50;-8.82;3.81;-10.78
-6.43;2.40;-1.63;-10.45;2.18;-11.54
-8.06;3.16;-1.63;-5.66;7.84;-1.85
-0.00;-3.27;2.40;-0.76;-8.28;11.76
2.40;3.16;-0.87;-5.66;-14.70;-1.09
-1.63;1.52;-1.63;-5.66;-23.52;-4.36
-0.87;-2.50;-1.63;4.03;-12.31;-6.75
-0.87;1.52;-0.00;1.63;-4.25;-2.72
2.40;-3.27;-1.63;9.69;5.44;0.54
-1.63;-2.50;3.16;17.75;6.21;1.31
2.40;-17.75;3.92;24.18;11.87;2.18
2.40;-31.47;5.55;5.66;9.47;5.34
4.79;-8.06;3.92;-4.03;7.84;4.57
-10.45;3.16;7.19;-8.06;4.68;2.94
-4.90;4.79;-0.87;-5.66;7.08;15.79
-1.63;4.79;3.16;-7.19;3.81;2.18
-1.63;4.79;-1.63;-4.79;3.05;1.31
1.63;13.61;-1.63;-2.40;1.42;-1.09
-11.33;-5.66;-1.63;-2.40;3.05;0.54
12.85;-0.87;-1.63;-0.76;1.42;2.18
-9.69;2.40;-1.63;-28.21;-2.61;0.54
2.40;0.76;-1.63;-2.40;-5.01;-0.33
0.76;0.76;-0.87;-1.63;-7.41;-4.36
-4.03;-2.50;-0.00;-4.03;-9.91;-7.51
-0.00;-0.00;-1.63;1.63;-9.91;-9.91
2.40;-4.03;-0.00;18.51;-13.07;-3.48
-0.00;0.76;-0.00;1.63;-7.41;-8.39
0.76;31.36;0.76;4.03;3.05;-2.72
1.63;-3.27;-0.00;0.00;8.71;-11.54
-1.63;4.03;0.76;2.40;12.74;-1.09
-4.03;3.16;-0.00;-3.16;4.68;1.31
-10.45;3.16;2.40;1.63;11.11;6.97
2.40;-25.05;2.40;-0.76;9.47;19.82
2.40;0.76;5.55;0.87;5.44;7.73
-23.41;-6.53;0.76;-0.76;4.68;4.57
-14.48;-2.50;0.76;5.66;7.84;1.31
-5.66;-0.87;-1.63;-4.03;3.81;5.34
2.40;-23.41;-0.00;0.87;5.44;1.31
2.40;4.79;-1.63;-3.16;-0.22;-20.47
13.72;0.76;-6.53;-2.40;-9.91;-6.75
1.63;-25.81;-1.63;-3.16;-11.43;-10.78
0.76;3.16;-2.50;-2.40;-19.49;-6.75
-1.63;-29.08;0.76;-2.40;-34.85;-3.48
-6.43;21.67;-1.63;-0.76;-23.52;-7.51
-6.43;-2.50;-0.00;8.06;-33.21;-9.91
-6.43;3.16;2.40;-1.63;-22.76;-13.18
0.76;-3.27;-1.63;0.87;-13.94;1.31
0.76;-8.06;-1.63;-3.16;3.05;1.31
9.69;-8.06;-1.63;4.03;12.74;15.79
20.91;4.79;-0.00;2.40;44.98;15.79
15.25;4.03;-0.00;1.63;24.83;6.21
22.54;-0.87;0.76;-26.57;20.80;1.31
2.40;-2.50;6.43;-2.40;27.99;1.31
-3.27;-5.66;-0.00;-5.66;17.53;1.31
-8.06;-3.27;0.76;-3.16;11.87;-6.75
-0.00;7.19;-0.00;-5.66;-2.61;1.31
-4.90;-2.50;-1.63;-8.06;-22.76;1.31
-5.66;4.79;-2.50;-2.40;-22.76;-1.09
-6.43;-2.50;-4.03;-30.60;-29.19;-9.15
-2.40;25.70;-1.63;-16.12;-36.48;-0.33
2.40;19.28;-4.03;1.63;-17.10;13.39
-3.27;-2.50;-2.50;7.30;3.81;-2.72
-5.66;2.40;2.40;9.69;6.21;-7.51
-6.43;-5.66;-0.87;16.88;11.11;-6.75
-0.00;-3.27;0.76;21.78;7.84;1.31
15.25;2.40;0.76;9.69;3.81;3.70
14.48;3.16;0.76;2.40;3.81;27.12
0.76;-15.35;-0.87;-10.45;-5.01;-2.72
-1.63;-3.27;-1.63;-16.12;1.42;-7.51
-6.43;-16.99;-1.63;-16.12;3.05;-2.72
-6.43;3.16;-2.50;-16.12;0.65;1.31
-6.43;-26.68;3.92;-12.09;-6.64;2.94
-2.40;4.79;5.55;-2.40;-5.88;0.54
-4.90;-8.93;3.92;-3.16;-9.04;2.18
-2.40;5.55;0.76;-1.63;-8.28;5.34
7.19;2.40;-1.63;-0.76;-9.04;3.70
2.40;5.55;2.40;5.66;-0.22;6.97
7.19;-4.03;-0.87;2.40;3.81;6.97
4.79;-5.66;-1.63;4.03;11.87;0.54
-0.00;-0.87;-2.50;4.03;8.71;-2.72
-2.40;1.52;-1.63;2.40;14.27;-6.75
20.15;-0.87;-2.50;0.87;12.74;-1.09
4.03;-0.87;-1.63;5.66;9.47;-12.41
-1.63;-23.41;-1.63;0.87;3.81;-5.88
-1.63;-28.21;-1.63;4.90;-0.22;1.31
1.63;3.16;-1.63;0.87;-7.41;12.63
3.16;4.79;-4.03;0.87;-9.04;2.18
5.66;-0.00;-0.00;-1.63;-9.04;1.31
3.16;0.76;-1.63;-2.40;-17.97;-4.36
4.03;-2.50;0.76;0.87;-10.67;-0.33
-4.90;-12.09;2.40;-0.76;-9.04;1.31
-1.63;3.16;0.76;-2.40;-4.25;2.94
-3.27;20.04;0.76;-0.76;-0.98;2.94
2.40;-5.66;2.40;-4.03;3.81;2.18
-8.93;-1.63;2.40;-0.76;7.84;2.94
1.63;3.16;-1.63;-3.16;6.21;2.18
-23.41;2.40;-0.87;-4.03;6.21;-3.48
3.16;-4.03;-1.63;-10.45;6.21;0.54
1.63;0.76;-1.63;2.40;4.68;-1.85
4.03;0.76;-1.63;10.45;3.81;2.94
3.16;15.25;-4.90;8.06;7.84;-2.72
9.69;-2.50;-2.50;0.87;4.68;-4.36
-0.00;3.16;-3.27;-0.76;3.81;-3.48
-1.63;-4.03;-1.63;-2.40;-0.22;-0.33
-5.66;-26.68;-0.87;-10.45;-1.85;1.31
-0.87;-2.50;-0.00;-7.19;0.65;1.31
-8.93;0.76;-0.87;-4.79;0.65;-3.48
-0.00;0.76;3.16;0.87;0.65;-5.88
8.06;2.40;-0.87;-1.63;-7.41;-20.47
0.76;0.76;0.76;-0.76;-13.94;-6.75
-4.90;-2.50;0.76;2.40;-13.07;-4.36
-6.43;4.03;6.43;1.63;-16.33;1.31
23.30;-3.27;-0.00;8.06;-13.07;1.31
-0.00;0.76;0.76;0.87;-13.07;6.21
-9.69;0.76;-0.00;1.63;-11.43;13.39
4.79;-0.87;2.40;-3.16;-6.64;5.34
2.40;0.76;-0.87;-4.03;2.18;1.31
3.16;-4.03;-0.87;-2.40;3.81;1.31
27.33;2.40;-1.63;-0.76;17.53;1.31
4.79;2.40;-5.66;-4.03;16.77;6.97
13.72;2.40;-1.63;4.90;22.32;1.31
0.76;-1.63;-0.00;1.63;24.83;-1.09
-0.87;-0.00;-2.50;7.30;29.62;2.18
-2.40;3.16;-2.50;0.87;27.99;-1.85
-0.00;-3.27;-1.63;0.00;18.30;-1.09
-1.63;2.40;0.76;-0.76;5.44;-9.91
-12.09;3.16;-1.63;-8.82;-11.43;-7.51
-1.63;-4.90;0.76;-9.69;-29.19;-10.78
0.76;9.58;-0.00;-6.43;-32.45;-1.85
15.25;-0.87;4.79;-6.43;-34.85;-5.88
1.63;-4.90;4.79;-4.03;-26.79;-0.33
-1.63;4.79;-0.00;-8.06;-42.04;1.31
3.16;-0.00;1.52;-1.63;-24.39;3.70
-0.87;-0.87;-0.87;33.87;-19.49;-1.09
0.76;-29.84;-1.63;1.63;-9.04;-1.09
-2.40;0.76;1.52;5.66;1.42;-1.85
-1.63;0.76;0.76;2.40;6.21;1.31
-0.87;0.76;-1.63;-20.15;9.47;-2.72
-0.00;3.16;-2.50;5.66;20.80;1.31
-1.63;-3.27;-4.03;4.90;28.86;1.31
1.63;-9.69;-4.03;7.30;39.31;-0.33
20.91;0.76;-1.63;9.69;30.38;2.18
2.40;-3.27;-1.63;5.66;11.87;1.31
8.06;-3.27;-0.00;7.30;4.68;1.31
7.19;4.03;-0.00;-13.72;-0.22;6.97
3.16;-3.27;-0.87;-2.40;-5.01;6.21
4.03;3.16;2.40;0.00;-8.28;0.54
2.40;0.76;0.76;-4.79;-4.25;-1.09
17.75;3.16;0.76;-3.16;-4.25;-13.94
-5.66;4.03;2.40;9.69;-5.01;-24.50
19.28;-0.00;-0.00;20.91;-7.41;1.31
-6.43;-2.50;4.79;9.69;-5.01;6.21
-24.18;1.52;-0.00;-3.16;-10.67;2.94
2.40;-2.50;-1.63;-11.22;-14.70;9.37
1.63;2.40;-1.63;-12.09;-13.94;2.94
-4.90;-2.50;-1.63;-11.22;-6.64;-0.33
3.16;1.52;-1.63;-9.69;-3.38;1.31
-0.00;-0.00;-0.87;-4.03;3.81;-5.88
-1.63;-0.00;-1.63;-7.19;3.81;-7.51
1.63;-8.06;-2.50;-1.63;3.81;0.54
2.40;-0.87;-3.27;-3.16;-21.13;-6.75
2.40;2.40;-1.63;2.40;-10.67;-3.48
-0.00;-0.87;-0.87;5.66;-1.85;-13.18
1.63;0.76;-0.87;-2.40;-0.22;-8.39
8.06;0.76;-1.63;-1.63;0.65;-0.33
4.79;2.40;-0.00;-9.69;3.81;-2.72
-32.23;0.76;-0.00;4.03;3.81;-2.72
3.16;0.76;0.76;9.69;5.44;-1.09
-2.40;-2.50;-1.63;0.87;12.74;-3.48
-4.90;4.79;2.40;-16.12;22.32;1.31
-0.00;0.76;-0.00;-1.63;21.56;5.34
-0.00;3.16;-0.00;5.66;14.27;1.31
2.40;0.76;0.76;-3.16;6.21;2.94
0.76;3.16;-0.87;-3.16;3.05;1.31
-0.87;-4.03;-0.00;-1.63;-5.01;-5.12
-2.40;-3.27;3.16;-6.43;-9.04;-0.33
0.76;-3.27;2.40;-0.76;-21.13;0.54
0.76;-3.27;-0.87;-4.03;-24.39;-0.33
28.21;0.76;-2.50;-8.06;-21.13;0.54
2.40;3.16;-0.87;-0.76;-22.00;-2.72
2.40;-21.02;-3.27;1.63;-20.36;-9.91
-5.66;1.52;-6.53;-1.63;-22.00;-9.91
1.63;1.52;-4.03;-16.88;-11.43;-5.88
2.40;-0.87;-1.63;9.69;3.81;-7.51
-4.90;-3.27;-1.63;13.72;12.74;-2.72
4.79;3.16;-0.87;7.30;15.90;-1.85
8.06;-3.27;-0.87;-1.63;17.53;3.70
16.12;-0.00;-0.00;33.00;25.59;10.24
16.88;2.40;2.40;-12.09;22.32;9.37
24.94;-0.87;-0.00;-4.79;15.90;-0.33
-5.66;3.16;1.52;-4.03;3.81;1.31
-6.43;0.76;2.40;-4.79;7.08;1.31
-7.30;4.03;-0.00;-3.16;1.42;2.18
-4.03;-1.63;3.16;-16.88;3.05;6.97
-8.93;0.76;-0.00;-1.63;-0.98;0.54
-12.09;-2.50;-1.63;-3.16;3.05;-1.85
-5.66;-0.00;-1.63;4.03;-1.85;-2.72
-2.40;-2.50;-0.87;-31.36;-5.01;-9.91
-3.27;-0.87;-1.63;-4.03;-12.31;11.76
2.40;0.76;-4.03;-5.66;-22.00;-6.75
2.40;2.40;-1.63;-2.40;-26.03;-0.33
4.03;-0.87;-1.63;-5.66;-24.39;1.31
1.63;2.40;-1.63;0.87;-20.36;6.21
15.25;2.40;-1.63;1.63;-14.70;8.60
12.85;2.40;-1.63;-0.76;-3.38;0.54
1.63;4.03;-1.63;-0.76;6.21;-6.75
-3.27;2.40;-0.00;1.63;16.77;-10.78
-8.06;2.40;-0.87;4.03;17.53;16.66
-2.40;-5.66;-0.87;5.66;14.27;0.54
1.63;0.76;0.76;-1.63;7.84;1.31
-0.00;3.16;-0.00;0.00;3.81;2.94
9.69;0.76;2.40;-3.16;1.42;1.31
-4.03;-4.90;1.52;2.40;3.05;1.31
-4.90;1.52;3.92;-11.22;2.18;5.34
-6.43;0.76;0.76;4.90;-0.98;1.31
-8.93;-4.03;-0.00;2.40;3.81;1.31
-4.90;-2.50;-1.63;-2.40;6.21;-3.48
3.16;-2.50;1.52;0.87;6.21;-4.36
13.72;1.52;-1.63;-4.03;9.47;2.18
1.63;4.79;-3.27;-4.79;17.53;-2.72
4.03;2.40;-1.63;-4.03;15.14;0.54
0.76;-4.03;-1.63;-1.63;17.53;1.31
2.40;-2.50;-0.87;2.40;7.84;-22.87
3.16;-22.65;-2.50;1.63;-14.70;-0.33
-5.66;0.76;-0.00;15.35;-25.16;-10.78
-5.66;-0.87;-1.63;4.03;-30.82;-6.75
-1.63;12.85;-1.63;-27.33;-34.09;-1.09
2.40;-0.00;-0.87;-3.16;-29.19;0.54
1.63;0.76;1.52;-5.66;-17.10;0.54
