-11.22;3.48;-1.31;-10.35;4.90;2.50
3.27;4.25;2.72;-2.29;25.92;3.27
3.27;-19.93;-0.54;-2.29;12.96;1.74
29.08;-2.18;0.33;1.74;17.86;4.14
3.27;1.09;-1.31;2.50;17.86;14.59
4.90;-3.81;3.48;3.38;10.56;2.50
2.50;0.22;-0.54;0.11;4.90;-9.58
3.27;-32.78;-0.54;8.17;6.53;-3.92
3.27;-3.81;1.09;10.56;7.30;-3.16
-3.92;-5.34;0.33;5.77;6.53;-7.19
-2.29;-8.60;-1.31;0.11;2.50;-10.35
-4.79;-2.18;0.33;-1.52;-5.55;-24.07
0.87;1.09;1.09;0.98;-6.32;-6.32
12.20;5.12;-0.54;-3.05;-12.85;12.20
3.27;-0.54;0.33;-4.68;0.87;16.99
1.74;0.22;-1.31;-7.08;-3.16;10.56
0.87;-2.18;-2.94;-1.52;10.56;4.14
3.27;0.22;-5.34;3.38;25.05;4.90
1.74;-2.18;-2.07;1.74;26.68;3.27
3.27;2.72;-1.31;-16.77;14.59;0.87
21.02;-3.81;-1.31;16.23;3.27;1.74
-0.76;-0.54;-1.31;9.80;-8.82;3.27
12.20;1.85;-1.31;9.80;-16.01;16.23
4.90;2.72;-2.94;2.50;-17.64;7.30
3.27;5.12;2.72;-0.65;-28.86;5.77
1.74;2.72;0.33;-15.14;-20.91;37.13
3.27;-2.18;-1.31;-18.40;-16.01;0.11
-11.22;1.85;0.33;-20.04;4.90;-11.22
-4.79;-6.97;-0.54;-16.77;-3.92;-10.35
-1.52;-2.94;-1.31;-15.14;-12.85;-11.98
3.27;-6.21;-0.54;-10.35;-18.40;-5.55
-5.55;-2.18;2.72;-0.65;-24.94;-7.19
3.27;1.09;3.48;1.74;-16.01;-2.29
3.27;-2.18;-1.31;5.77;3.27;2.50
1.74;-18.30;-1.31;7.41;7.30;1.74
-2.29;-2.18;-0.54;40.40;10.56;-3.16
-27.33;1.09;-2.94;9.80;13.83;-11.22
-4.79;-21.45;-2.07;9.04;17.86;-3.92
-31.36;0.22;-2.07;6.53;15.35;-11.22
-1.52;-2.18;-1.31;-2.29;5.77;-11.22
0.87;1.09;-1.31;-3.92;0.87;-3.92
3.27;3.48;0.33;-0.65;-2.29;1.74
4.14;1.09;1.96;0.11;8.93;12.96
-2.29;-13.39;6.75;5.01;15.35;17.86
-5.55;-2.94;2.72;2.50;23.41;13.83
4.90;2.72;1.09;0.98;17.86;12.20
1.74;4.25;-1.31;3.38;3.27;-26.46
-1.52;-0.54;-1.31;8.17;-5.55;-11.22
3.27;-15.03;-0.54;0.98;-7.19;-11.98
0.87;-3.81;-2.94;-3.05;-20.04;-10.35
-16.88;-3.81;-1.31;-28.86;-20.91;0.87
5.77;1.09;4.36;-7.08;-21.67;9.80
3.27;1.09;-1.31;-4.68;-17.64;9.80
-11.22;-29.51;0.33;-15.14;-8.82;7.30
-0.76;17.21;-1.31;0.11;4.90;9.80
3.27;1.09;-1.31;23.52;10.56;13.83
0.87;3.48;-1.31;0.11;12.96;3.27
0.87;-5.34;5.99;0.11;4.90;1.74
-5.55;1.85;-2.07;-2.29;4.90;1.74
-3.16;5.12;-1.31;-1.52;-0.76;0.11
3.27;4.25;-2.07;-1.52;-9.58;-5.55
5.77;4.25;-1.31;-3.05;-8.82;-8.82
-5.55;-3.81;0.33;0.98;-7.95;-15.25
-0.76;1.85;-1.31;-0.65;-3.16;-12.85
-4.79;-3.81;-1.31;-1.52;4.90;-12.85
16.99;4.25;-2.07;0.11;-19.28;-7.19
8.17;1.85;0.33;-2.29;3.27;24.28
3.27;-0.54;-6.97;3.38;0.87;-2.29
19.38;-0.54;1.09;0.98;-3.92;1.74
-24.07;3.48;4.36;-3.92;-7.19;10.56
-0.76;-0.54;3.48;10.56;-16.01;9.80
-1.52;-4.57;1.09;-0.65;-4.79;4.14
3.27;3.48;-0.54;-0.65;6.53;7.30
-17.64;0.22;5.99;-0.65;22.65;7.30
1.74;1.85;-1.31;1.74;31.47;4.14
-4.79;0.22;-1.31;3.38;36.37;-5.55
-1.52;-0.54;4.36;1.74;28.31;1.74
-7.95;2.72;-2.07;-3.92;19.38;1.74
3.27;0.22;-5.34;1.74;5.77;3.27
0.87;3.48;-0.54;1.74;-3.92;2.50
3.27;1.09;-0.54;3.38;-20.91;2.50
-8.82;3.48;-1.31;5.77;-25.70;-8.82
0.87;-2.18;-2.07;35.61;-32.13;-6.32
8.93;3.48;1.96;0.11;-12.85;-3.92
5.77;1.09;3.48;-2.29;0.87;-11.22
6.53;3.48;-1.31;-9.58;7.30;-7.19
3.27;-2.94;1.09;-15.14;4.90;3.27
-1.52;-0.54;-1.31;0.11;0.11;1.74
-1.52;-6.97;2.72;-11.11;-11.98;3.27
-5.55;-16.66;0.33;-9.58;-20.91;3.27
-2.29;-2.18;5.99;-11.98;-20.91;0.11
14.59;-2.18;-1.31;-3.92;-22.43;1.74
-3.16;0.22;-1.31;13.83;-11.98;1.74
1.74;-0.54;-0.54;3.38;4.90;1.74
0.87;-3.81;2.72;10.56;10.56;0.11
15.35;1.09;6.75;10.56;20.26;-5.55
-4.79;-4.57;-1.31;3.38;18.62;-9.58
3.27;-3.81;-3.70;2.50;6.53;-7.95
0.87;-2.94;-6.97;-3.92;4.14;1.74
3.27;5.12;17.21;-2.29;-3.16;-1.52
6.53;-2.18;-1.31;-9.58;-3.16;0.11
8.17;4.25;-0.54;2.50;-3.92;-3.92
7.30;5.12;-2.07;12.20;-7.95;-8.82
0.87;3.48;1.09;11.43;-11.98;-2.29
27.44;1.09;1.09;8.17;-9.58;-3.16
-7.19;-0.54;-1.31;-7.08;-2.29;5.77
-8.82;-2.18;-1.31;-11.98;6.53;12.96
-10.35;0.22;-0.54;-10.35;16.99;12.20
-5.55;-6.97;-9.37;-9.58;34.74;14.59
0.87;-2.94;-0.54;-3.05;39.53;6.53
-30.49;-3.81;-0.54;0.11;32.34;4.14
28.31;0.22;-1.31;2.50;21.89;-5.55
5.77;4.25;2.72;-0.65;4.90;-0.76
-3.92;-22.32;1.09;1.74;-17.64;-6.32
1.74;-0.54;-2.07;8.17;-35.39;-7.19
1.74;-4.57;-1.31;2.50;-46.61;-11.22
5.77;5.88;-1.31;-4.68;-60.33;-6.32
-11.22;-2.94;-1.31;-1.52;-49.00;-3.16
3.27;3.48;-2.07;8.17;-24.94;0.11
-34.52;4.25;-1.31;14.59;-0.76;-7.95
-0.76;3.48;3.48;10.56;8.17;-5.55
-0.76;3.48;1.09;2.50;20.26;0.11
3.27;-2.18;-2.07;-4.68;17.86;4.14
14.59;0.22;-1.31;-19.17;7.30;10.56
5.77;-4.57;-6.10;-9.58;22.65;8.93
3.27;1.09;2.72;-10.35;15.35;10.56
3.27;-27.99;0.33;-36.92;21.89;7.30
2.50;-2.94;-0.54;-0.65;19.38;12.20
1.74;-10.24;-0.54;-2.29;14.59;1.74
-2.29;-0.54;-0.54;-1.52;4.90;1.74
-2.29;-3.81;-0.54;10.56;-20.04;-7.95
0.87;-7.84;-1.31;-1.52;-8.82;-13.61
-22.43;2.72;-1.31;2.50;-11.98;-11.22
-9.58;-0.54;-1.31;0.11;-17.64;-6.32
-1.52;1.85;-1.31;0.98;-28.10;-0.76
0.11;-0.54;0.33;5.01;-15.25;0.87
0.87;1.09;-1.31;-0.65;-8.82;-10.35
-1.52;1.09;-1.31;2.50;0.87;0.11
0.87;30.06;-1.31;-2.29;5.77;9.80
3.27;2.72;-0.54;-3.05;10.56;2.50
7.30;5.12;-18.19;-2.29;6.53;2.50
7.30;1.09;-1.31;7.41;13.83;7.30
1.74;3.48;-0.54;7.41;7.30;0.87
0.11;1.09;-1.31;8.17;15.35;-2.29
-1.52;-2.18;2.72;1.74;18.62;1.74
-2.29;-4.57;0.33;1.74;15.35;0.11
-0.76;2.72;18.84;5.01;6.53;1.74
-6.32;-2.18;-1.31;3.38;2.50;4.90
4.14;-2.18;2.72;3.38;-2.29;15.35
4.90;1.09;3.48;-2.29;-11.98;21.89
-0.76;-4.57;4.36;-1.52;-16.88;7.30
-10.35;-6.21;-2.07;-2.29;-16.88;0.11
-3.92;1.09;-2.07;-0.65;-20.91;-6.32
-3.92;3.48;-0.54;-27.22;-15.25;-20.04
-4.79;-2.94;-1.31;1.74;-12.85;-29.73
-3.92;1.09;-2.07;-0.65;-7.95;-18.40
1.74;6.64;-1.31;-0.65;-9.58;-5.55
-0.76;28.42;-2.07;16.23;-3.16;-2.29
10.56;1.85;0.33;0.11;0.11;1.74
3.27;2.72;12.41;1.74;8.93;9.80
12.96;1.09;-1.31;0.98;6.53;9.80
1.74;-0.54;-2.07;5.01;4.90;2.50
3.27;3.48;2.72;-16.77;4.90;0.87
-1.52;-2.18;-0.54;-2.29;0.87;0.11
0.87;0.22;1.09;3.38;4.90;3.27
-3.92;1.09;-0.54;2.50;7.30;4.90
0.87;0.22;-1.31;0.11;13.83;19.38
3.27;1.09;16.44;-6.32;4.90;0.87
2.50;1.09;-1.31;-6.32;-0.76;0.87
-0.76;-2.18;-2.94;-5.55;0.11;-2.29
-3.92;-2.18;-0.54;-6.32;-10.35;-6.32
-1.52;2.72;1.09;-4.68;-7.95;-3.92
-1.52;-2.94;-0.54;-1.52;-9.58;-9.58
-5.55;-0.54;0.33;0.11;-8.82;-3.16
15.35;5.12;-0.54;-0.65;-8.82;1.74
0.11;5.12;-21.45;-1.52;-7.95;1.74
0.87;1.09;-5.34;3.38;0.87;1.74
2.50;-0.54;-1.31;-2.29;1.74;1.74
2.50;5.12;-0.54;-0.65;-19.28;-2.29
1.74;-5.34;-1.31;2.50;5.77;1.74
1.74;-9.37;1.09;10.56;4.90;1.74
-0.76;-2.18;-0.54;6.53;4.90;2.50
4.90;-2.18;-1.31;3.38;4.90;1.74
-21.67;17.21;-0.54;1.74;4.90;4.14
-3.92;-2.18;3.48;10.56;4.90;-31.36
-24.94;-2.94;1.09;9.80;8.93;1.74
3.27;3.48;1.09;8.17;21.89;2.50
-5.55;-2.94;2.72;-1.52;22.65;-3.92
-7.19;4.25;-0.54;-9.58;39.53;-3.92
-8.82;-2.94;2.72;-7.08;4.90;-4.79
-10.35;-3.81;0.33;-11.11;-7.19;-7.19
12.20;-2.18;-1.31;-12.74;-28.86;-3.16
0.11;-2.18;-1.31;-13.61;-20.04;0.87
3.27;-1.31;-15.79;-2.29;-20.91;1.74
4.14;-2.94;-0.54;-3.92;-22.43;5.77
3.27;0.22;-1.31;-6.32;-20.91;28.31
3.27;3.48;-1.31;-3.92;-7.95;13.83
3.27;5.12;-1.31;-0.65;3.27;6.53
3.27;-5.34;-0.54;1.74;0.87;2.50
-4.79;-3.81;-19.06;-0.65;4.90;1.74
3.27;1.85;0.33;2.50;4.90;1.74
1.74;5.12;-1.31;3.38;4.14;-11.22
3.27;-20.69;-1.31;5.77;2.50;-6.32
3.27;5.12;1.09;6.53;-6.32;-5.55
3.27;-0.54;3.48;-2.29;-8.82;-0.76
-0.76;-17.42;-1.31;2.50;-16.01;-3.16
3.27;-5.34;-1.31;-3.05;-10.35;2.50
-4.79;1.85;0.33;-3.92;0.87;9.80
-11.98;0.22;4.36;-6.32;4.90;4.90
-7.95;30.82;2.72;-1.52;7.30;2.50
-1.52;0.22;2.72;13.07;8.93;1.74
-3.92;2.72;3.48;10.56;7.30;-7.95
3.27;3.48;-0.54;6.53;13.83;-2.29
-3.92;5.12;-1.31;-1.52;17.86;-5.55
-1.52;3.48;-1.31;-2.29;12.20;-2.29
0.87;-3.81;-2.94;-7.95;30.71;-3.16
2.50;-0.54;-1.31;-12.74;-20.91;-0.76
-3.92;-3.81;-2.94;6.53;4.90;-3.92
3.27;1.85;-2.94;0.11;12.20;8.93
13.83;-5.34;-1.31;2.50;17.86;13.83
4.90;-0.54;-2.94;9.04;21.89;13.83
0.87;2.72;-1.31;-2.29;7.30;20.26
4.14;1.09;-3.70;-4.68;-7.19;-3.16
3.27;-0.54;-3.70;3.38;-13.61;-23.30
2.50;-2.18;-1.31;-2.29;-23.30;-11.98
-0.76;1.85;3.48;-6.32;-28.10;-8.82
-1.52;-2.94;3.48;-2.29;-39.42;-3.16
-3.16;-2.94;-27.12;-1.52;-38.55;-5.55
-15.25;1.85;-1.31;3.38;-21.67;0.11
-9.58;-19.93;0.33;-1.52;-3.92;1.74
-0.76;-7.84;-1.31;-0.65;13.83;0.11
-5.55;-16.66;-1.31;-0.65;20.26;-6.32
-4.79;-7.84;0.33;-6.32;30.71;-11.22
-1.52;30.82;0.33;0.11;22.65;-8.82
-4.79;15.57;-0.54;-3.05;10.56;-22.43
-3.16;-4.57;-2.07;13.83;21.02;-18.40
-31.36;-2.18;-1.31;-4.68;-5.55;-5.55
2.50;1.09;-1.31;-0.65;-9.58;4.14
3.27;0.22;-5.34;-6.32;-18.40;13.83
1.74;-0.54;-1.31;-7.08;-20.91;20.26
3.27;-1.31;-2.94;-3.05;-20.04;19.38
-0.76;-2.18;-6.10;-1.52;-5.55;16.99
3.27;1.85;-1.31;3.38;5.77;14.59
7.30;4.25;0.33;3.38;8.93;1.74
4.90;1.09;-1.31;11.43;16.99;-3.16
0.87;1.09;-0.54;20.26;18.62;-2.29
3.27;4.25;-1.31;11.43;25.92;-2.29
1.74;5.12;1.96;9.80;25.92;-5.55
3.27;1.85;9.15;-1.52;15.35;1.74
-7.95;-2.18;2.72;-11.98;4.90;-7.19
3.27;-2.94;1.09;-15.14;-0.76;-4.79
-7.95;-0.54;-0.54;-14.37;-16.01;-7.19
3.27;1.09;-11.76;-6.32;-20.91;-3.16
-25.70;5.12;-1.31;-4.68;-23.30;-2.29
5.77;-6.21;-2.07;13.07;-19.28;-3.16
19.38;1.09;-1.31;-0.65;-6.32;-24.07
-3.92;-15.03;-1.31;-15.14;-3.92;9.80
3.27;4.25;0.33;6.53;-3.92;6.53
0.87;1.09;-4.57;-7.95;-2.29;6.53
3.27;-2.94;-2.94;-3.05;3.27;2.50
4.90;-25.48;-1.31;-3.05;6.53;1.74
4.14;1.09;-1.31;-2.29;23.41;1.74
-0.76;-0.54;-1.31;3.38;5.77;-3.16
-1.52;-2.18;1.96;3.38;12.96;0.11
4.90;-0.54;-1.31;6.53;12.96;-3.16
2.50;2.72;-1.31;3.38;19.38;-22.43
-0.76;-1.31;0.33;7.41;12.96;-28.86
26.68;-8.60;-0.54;4.14;1.74;-11.22
37.13;-2.18;-2.07;1.74;-7.95;-2.29
-36.15;-2.18;0.33;6.53;-11.98;0.11
-10.35;-2.18;-1.31;-0.65;-16.88;-0.76
-4.79;0.22;-0.54;-3.05;-24.07;-3.16
-8.82;-3.81;1.09;-1.52;-19.28;-0.76
-2.29;-4.57;-1.31;-3.05;-18.40;1.74
1.74;18.73;-1.31;0.11;-8.82;2.50
3.27;3.48;-6.10;-3.05;-3.16;1.74
1.74;-2.18;-22.22;-6.32;3.27;1.74
2.50;-2.18;-1.31;-7.08;4.90;7.30
1.74;-3.81;-1.31;-2.29;11.33;6.53
1.74;5.12;-1.31;3.38;16.23;5.77
-0.76;-0.54;-1.31;1.74;25.92;19.38
5.77;2.72;-1.31;25.05;4.90;-2.29
3.27;-0.54;0.33;11.43;25.05;1.74
-27.33;4.25;5.99;9.04;13.83;5.77
2.50;-2.94;24.50;9.04;3.27;-3.16
-0.76;0.22;0.33;2.50;-11.98;-3.92
0.11;-2.94;-1.31;-2.29;-20.91;3.27
-1.52;-2.18;-1.31;-6.32;-24.94;4.90
2.50;7.51;-0.54;-11.98;-20.91;-0.76
-1.52;9.91;-1.31;-20.80;-19.28;0.11
-2.29;0.22;-1.31;-7.08;-8.82;0.87
-11.98;-0.54;-1.31;-6.32;4.14;-5.55
-10.35;0.22;1.09;-11.11;0.11;-5.55
3.27;9.15;-1.31;-20.04;-0.76;-3.16
-0.76;0.22;-1.31;-3.92;-7.19;0.87
-5.55;5.12;-1.31;0.11;4.90;-0.76
0.87;2.72;-2.94;2.50;4.90;1.74
4.14;3.48;4.36;2.50;4.90;-2.29
0.11;5.88;-2.94;1.74;-5.55;-8.82
0.87;3.48;-1.31;9.04;6.53;-3.92
4.14;2.72;-1.31;6.53;14.59;-5.55
0.87;21.24;0.33;6.53;18.62;-11.22
10.56;4.25;4.36;9.80;17.86;0.87
0.11;-2.18;0.33;-2.29;14.59;0.87
-3.92;-6.21;0.33;12.20;8.93;5.77
0.87;-2.94;-0.54;13.07;4.90;0.11
-0.76;2.72;-1.31;6.53;-3.16;-11.98
8.93;-2.18;-1.31;-1.52;-9.58;12.96
-0.76;-2.94;1.96;-7.95;-18.40;12.96
2.50;-5.34;-2.07;-19.17;-16.01;9.80
-5.55;-2.94;0.33;-19.17;-15.25;7.30
17.86;-3.81;-1.31;-16.77;3.27;4.14
3.27;-2.18;-1.31;-7.95;-12.85;0.87
3.27;2.72;-1.31;-12.74;-15.25;0.11
0.87;-2.94;-1.31;-9.58;-18.40;-11.98
-3.92;-3.81;-2.07;-30.49;-7.19;-15.25
-1.52;1.09;8.39;1.74;-6.32;-3.16
0.11;-2.94;-2.07;3.38;5.77;3.27
2.50;5.12;-1.31;10.56;4.14;4.90
-0.76;0.22;-0.54;-0.65;17.86;10.56
-3.92;1.09;21.24;5.01;10.56;5.77
0.87;2.72;-1.31;3.38;13.83;10.56
2.50;5.12;1.09;5.77;30.71;1.74
3.27;5.12;-1.31;2.50;10.56;-24.07
-0.76;-2.18;1.09;5.01;8.93;-5.55
29.08;1.85;-0.54;21.89;4.90;-7.19
3.27;-28.75;-1.31;9.04;4.90;-6.32
8.93;0.22;4.36;6.53;2.50;-11.22
2.50;1.09;1.09;3.38;4.14;-0.76
-21.67;1.09;1.09;1.74;3.27;-6.32
1.74;-3.81;2.72;-6.32;-11.22;-4.79
2.50;3.48;2.72;-1.52;-11.98;-5.55
0.87;-0.54;-1.31;-4.68;-10.35;0.87
-1.52;-2.94;-0.54;3.38;4.14;1.74
-0.76;-0.54;10.02;5.01;21.02;9.80
7.30;1.09;-0.54;8.17;23.41;12.20
2.50;2.72;-1.31;3.38;23.41;10.56
-0.76;1.85;-1.31;0.98;-6.32;12.20
2.50;-2.18;-1.31;-1.52;-18.40;27.44
3.27;0.22;-1.31;-3.05;-20.91;-7.95
-1.52;-3.81;-2.94;-4.68;-24.94;-5.55
-6.32;-13.39;-1.31;-7.08;-25.70;-3.92
-1.52;-2.18;1.09;-7.08;-28.10;-11.22
3.27;-5.34;-1.31;-10.35;-16.01;-12.85
0.11;-2.94;-1.31;-4.68;0.11;-7.19
3.27;-2.18;-1.31;-4.68;8.17;-2.29
0.87;-2.18;-0.54;-0.65;17.86;0.87
-0.76;-2.94;-1.31;0.11;27.44;-0.76
-1.52;-0.54;-1.31;6.53;30.71;-21.67
-7.95;2.72;6.75;8.17;21.89;1.74
-5.55;-5.34;-1.31;9.04;10.56;2.50
0.11;-0.54;-3.70;8.17;4.90;4.14
-10.35;4.25;4.36;25.05;-6.32;7.30
-1.52;1.09;2.72;-1.52;-12.85;4.90
-5.55;1.85;-0.54;2.50;-9.58;15.35
-7.95;-6.21;-1.31;-1.52;-1.52;4.14
5.77;-3.81;5.99;-1.52;4.90;-5.55
10.56;0.22;-1.31;3.38;7.30;3.27
2.50;1.09;-1.31;5.77;5.77;1.74
0.87;0.22;-1.31;6.53;6.53;-7.19
3.27;-2.18;3.48;-0.65;-5.55;0.87
0.11;-3.81;1.96;-3.92;0.11;0.87
3.27;17.21;-1.31;-3.05;4.14;0.11
3.27;-3.81;0.33;-7.08;2.50;1.74
1.74;-0.54;-1.31;-12.74;6.53;1.74
29.08;-2.94;-1.31;-9.58;0.87;2.50
-0.76;-2.94;1.96;-7.95;8.93;-3.92
-5.55;-5.34;-0.54;-2.29;-20.91;-9.58
0.87;-3.81;0.33;-5.55;-21.67;-12.85
-3.92;-2.18;24.50;-0.65;-20.91;-36.92
-7.19;1.09;-1.31;0.11;-20.91;-34.52
-8.82;-2.18;-1.31;-0.65;-34.52;-16.88
-3.92;4.25;-0.54;-3.05;-9.58;2.50
-0.76;2.72;-1.31;-1.52;-10.35;8.93
1.74;2.72;0.33;-2.29;3.27;23.41
3.27;2.72;10.78;1.74;4.90;27.44
3.27;5.88;-1.31;5.77;13.83;9.80
-0.76;4.25;0.33;5.01;18.62;50.09
7.30;-5.34;-2.07;10.56;30.71;17.86
0.87;-3.81;-1.31;3.38;29.08;0.11
0.87;-3.81;0.33;9.80;26.68;-6.32
0.11;26.79;-0.54;21.02;15.35;-7.19
-0.76;2.72;-27.88;21.89;1.74;-13.61
-3.92;0.22;-5.34;9.80;-7.19;-11.98
-3.16;-29.51;0.33;-2.29;-16.01;-10.35
-0.76;0.22;-0.54;-10.35;-16.01;1.74
2.50;1.09;-2.07;-20.04;-20.91;3.27
3.27;1.09;-1.31;-26.46;-11.22;7.30
-1.52;-2.94;-1.31;-15.14;-9.58;6.53
3.27;-2.94;0.33;-16.01;-0.76;1.74
3.27;3.48;-16.66;-11.98;3.27;1.74
1.74;-2.18;0.33;-4.68;-3.92;-13.61
-1.52;-2.94;0.33;5.01;-5.55;-14.37
-3.92;-2.18;-1.31;-2.29;-7.19;-7.19
-2.29;0.22;-1.31;10.56;4.14;-6.32
-3.92;-5.34;-1.31;8.17;5.77;-1.52
2.50;-3.81;13.18;8.17;4.90;-18.40
3.27;-2.18;-1.31;8.17;4.90;4.14
-1.52;-6.21;-1.31;6.53;5.77;-10.35
0.11;0.22;-21.45;10.56;10.56;16.99
1.74;1.85;-1.31;26.68;17.86;15.35
3.27;-2.18;-1.31;14.59;16.23;-21.67
-0.76;-4.57;16.44;10.56;4.90;-2.29
3.27;-3.81;10.02;-3.92;4.90;1.74
3.27;1.85;-0.54;-15.14;4.14;-11.22
3.27;-20.69;3.48;-9.58;1.74;-16.88
0.87;0.22;2.72;-12.74;-5.55;-18.40
-0.76;31.69;-1.31;-11.11;-33.76;-16.88
-6.32;-0.54;-0.54;-12.74;-36.92;-15.25
-8.82;-4.57;-0.54;-11.98;-20.04;-3.92
-8.82;1.85;0.33;-36.92;-0.76;5.77
-4.79;-5.34;-1.31;-0.65;4.14;4.90
-7.19;-0.54;-1.31;10.56;16.99;8.93
-16.88;4.25;-1.31;3.38;4.90;7.30
-0.76;-0.54;-2.07;1.74;4.90;-23.30
-3.92;0.22;-1.31;0.11;-3.92;-8.82
-1.52;1.09;-10.13;-3.05;-11.98;-3.16
4.14;2.72;-1.31;-1.52;-7.95;0.87
3.27;12.31;-1.31;-3.05;-11.98;-3.92
-0.76;3.48;-1.31;-1.52;-23.30;-5.55
-3.92;-0.54;-0.54;0.98;9.80;1.74
3.27;-2.18;0.33;5.77;9.80;1.74
3.27;0.22;3.48;2.50;8.93;-7.19
21.89;4.25;4.36;3.38;5.77;1.74
3.27;1.85;1.09;3.38;1.74;5.77
3.27;15.57;-0.54;2.50;4.90;0.11
2.50;-0.54;-0.54;5.01;17.86;3.27
3.27;1.85;1.96;3.38;15.35;1.74
-1.52;-24.72;4.36;2.50;9.80;-3.16
-3.16;15.57;1.96;-15.14;6.53;-7.19
-0.76;4.25;3.48;5.01;6.53;-19.28
-1.52;-5.34;17.21;-0.65;5.77;-24.07
-5.55;-5.34;-1.31;-1.52;1.74;-9.58
-16.01;1.09;-0.54;-3.05;4.90;6.53
0.87;0.22;-1.31;-7.95;5.77;21.89
16.23;1.09;-1.31;-0.65;4.90;27.44
2.50;-2.94;-1.31;1.74;0.11;16.23
3.27;-2.18;-1.31;-2.29;-3.92;16.23
4.14;3.48;11.54;0.11;3.27;7.30
-1.52;5.12;-1.31;-3.05;2.50;-0.76
4.90;-0.54;1.09;-3.05;4.90;-19.28
-2.29;1.09;3.48;-6.32;4.90;0.87
-3.92;-2.18;0.33;-1.52;-10.35;-0.76
0.87;-0.54;-1.31;-1.52;-2.29;-2.29
1.74;0.22;-0.54;-2.29;-7.95;-3.16
5.77;5.12;0.33;-2.29;-12.85;-6.32
4.90;4.25;-0.54;-2.29;-10.35;-11.22
-3.92;-2.18;-1.31;-11.11;-7.19;-12.85
-7.95;1.09;-1.31;3.38;-6.32;-20.91
-7.19;5.12;3.48;3.38;0.87;-11.22
-7.19;3.48;-0.54;3.38;-2.29;-11.22
-6.32;-0.54;0.33;-0.65;1.74;2.50
5.77;2.72;-19.06;0.11;4.90;16.23
8.93;4.25;-2.07;-4.68;4.90;2.50
4.14;1.09;-2.07;-3.05;29.95;3.27
-1.52;0.22;-1.31;-3.05;3.27;-2.29
-10.35;-0.54;-1.31;2.50;8.17;1.74
4.14;-3.81;-3.70;-2.29;-3.16;1.74
8.93;2.72;-2.07;-2.29;-3.16;1.74
4.14;1.09;-1.31;-4.68;-4.79;1.74
-2.29;-2.18;-5.34;-3.92;-3.16;1.74
-4.79;-2.94;-1.31;-1.52;-7.19;3.27
-23.30;2.72;-0.54;-6.32;4.90;3.27
-29.73;-2.18;0.33;-30.49;-4.79;0.11
0.11;-4.57;-1.31;-3.05;-3.92;-2.29
-2.29;1.09;-0.54;-1.52;-2.29;-3.16
-1.52;1.09;-1.31;26.68;4.90;0.11
-4.79;-2.94;-1.31;2.50;4.90;-0.76
3.27;0.22;-1.31;5.01;4.90;1.74
4.14;0.22;25.26;1.74;4.90;-2.29
3.27;1.09;3.48;2.50;4.14;-3.16
-2.29;1.09;1.09;-1.52;12.20;-2.29
0.11;19.60;0.33;-12.74;8.17;-0.76
-1.52;-4.57;2.72;-1.52;7.30;0.87
-2.29;4.25;-1.31;0.11;10.56;1.74
0.11;-2.18;-0.54;1.74;6.53;-3.16
-7.19;1.09;1.09;6.53;9.80;-0.76
-0.76;-2.18;-1.31;10.56;9.80;4.90
4.14;-0.54;-2.07;10.56;4.90;1.74
-7.19;2.72;-2.94;-1.52;10.56;5.77
1.74;14.70;0.33;-2.29;-7.19;8.93
-0.76;-2.18;-26.24;-3.05;3.27;12.20
-3.16;-1.31;-1.31;22.65;-10.35;1.74
3.27;4.25;18.84;-3.05;-20.91;29.08
3.27;-2.18;-1.31;-1.52;-28.86;9.80
3.27;1.85;1.09;-1.52;-32.13;-27.33
12.20;-2.18;-1.31;-2.29;-33.76;-11.98
3.27;-1.31;-1.31;-2.29;-29.73;-9.58
3.27;1.09;-1.31;-2.29;-24.94;-7.19
-6.32;-2.94;1.09;8.17;-11.22;-7.95
31.47;-5.34;2.72;13.07;-11.98;0.11
4.14;-25.48;1.09;5.01;15.35;-3.16
0.87;2.72;2.72;14.59;16.23;-5.55
-0.76;1.85;-3.70;-15.14;10.56;-1.52
-0.76;-1.31;-2.07;-15.14;4.90;4.90
-1.52;-2.94;-12.63;-15.14;7.30;-9.58
3.27;1.09;-1.31;-7.95;7.30;-1.52
0.11;-2.18;14.81;-3.92;12.96;5.77
1.74;33.32;-2.07;3.38;15.35;12.20
3.27;1.09;6.75;5.77;7.30;8.93
2.50;3.48;-2.07;5.77;3.27;1.74
0.87;0.22;-1.31;-0.65;4.14;-7.19
3.27;-2.94;-0.54;8.17;-4.79;-7.95
2.50;9.91;1.09;0.11;0.11;-11.22
3.27;5.12;21.24;5.01;4.90;-8.82
-0.76;1.85;-19.82;4.14;-2.29;0.87
2.50;-2.94;-0.54;-0.65;-3.92;7.30
1.74;-0.54;-1.31;6.53;4.90;16.23
-3.92;-2.18;-2.07;13.07;16.99;-0.76
-1.52;9.91;-1.31;21.02;-7.19;17.86
-0.76;-8.60;1.09;6.53;4.90;12.96
-10.35;1.09;-1.31;10.56;-7.95;1.74
-3.92;0.22;0.33;-10.35;-12.85;-9.58
-0.76;2.72;-10.13;-14.37;-8.82;-16.01
-29.73;-2.94;-1.31;-15.14;-10.35;-11.98
-1.52;4.25;-2.07;-15.14;-8.82;-23.30
-1.52;-3.81;-1.31;-10.35;-8.82;1.74
-1.52;2.72;-1.31;-2.29;-0.76;-24.07
1.74;-2.18;-2.94;-1.52;4.14;-1.52
4.14;5.12;-1.31;2.50;4.90;1.74
3.27;1.85;-1.31;9.04;-2.29;8.17
0.87;-0.54;0.33;9.04;4.14;12.20
5.77;-2.94;-0.54;10.56;6.53;10.56
2.50;0.22;1.09;-16.01;4.90;2.50
3.27;1.85;-1.31;5.77;4.14;-7.19
-11.98;-3.81;-0.54;-3.05;4.14;-11.22
-0.76;0.22;13.94;0.11;2.50;-11.22
-2.29;0.22;-1.31;0.11;4.90;-1.52
-1.52;0.22;0.33;-2.29;4.90;1.74
-2.29;-1.31;1.09;-2.29;0.87;0.11
-1.52;-3.81;-0.54;-1.52;4.90;-2.29
-1.52;-3.81;0.33;-0.65;4.90;0.11
-3.92;17.21;-1.31;1.74;7.30;-0.76
15.35;-2.94;1.09;-4.68;-3.16;-2.29
0.11;1.09;-1.31;-2.29;-6.32;-0.76
2.50;5.12;-2.94;10.56;-2.29;4.14
3.27;4.25;-2.07;-1.52;-10.35;1.74
3.27;-3.81;-1.31;-0.65;-8.82;1.74
4.90;2.72;10.78;0.98;-7.95;16.99
-1.52;1.85;0.33;0.11;-7.19;-3.16
-2.29;-7.84;-1.31;-1.52;0.11;1.74
3.27;1.85;-0.54;2.50;5.77;2.50
2.50;1.09;-1.31;31.58;7.30;2.50
11.33;-0.54;-11.76;-3.92;4.90;1.74
12.20;-2.18;-1.31;-6.32;6.53;4.90
14.59;-2.18;1.09;-1.52;4.14;4.90
10.56;1.09;-1.31;-2.29;-3.16;9.80
1.74;-2.18;-1.31;-0.65;-9.58;1.74
-24.07;1.85;-1.31;-2.29;-9.58;-0.76
-1.52;-0.54;1.09;0.11;-7.19;26.68
-13.61;-0.54;-0.54;-2.29;-7.19;0.87
-16.01;-5.34;4.36;-3.05;0.87;-3.16
-20.04;-3.81;2.72;6.53;-3.92;-9.58
-35.39;15.57;-1.31;-2.29;1.74;-3.16
-3.92;1.09;0.33;-0.65;-3.16;0.87
16.99;2.72;-5.34;-2.29;-13.61;1.74
5.77;1.09;-1.31;-2.29;-3.92;16.99
4.90;0.22;-1.31;-2.29;-8.82;-0.76
8.93;0.22;-6.10;-0.65;-28.10;-3.16
4.14;-0.54;-5.34;-6.32;0.11;-3.16
-1.52;32.45;-1.31;16.23;4.14;-1.52
3.27;5.12;6.75;5.77;9.80;0.87
0.87;3.48;0.33;3.38;20.26;-0.76
3.27;-0.54;-0.54;23.52;23.41;0.87
3.27;4.25;-0.54;-2.29;16.23;5.77
-1.52;-2.18;-1.31;5.01;6.53;1.74
-5.55;3.48;-1.31;9.80;0.87;7.30
-3.92;-2.18;-0.54;10.56;9.80;3.27
0.87;13.18;1.09;3.38;-3.16;2.50
0.87;-15.90;1.96;2.50;-6.32;1.74
2.50;-2.94;1.09;-0.65;-7.19;-7.95
-22.43;-10.24;-0.54;-6.32;-6.32;-16.88
-2.29;-3.81;4.36;-7.95;-0.76;-9.58
-0.76;0.22;1.09;-6.32;-2.29;-7.19
2.50;-2.18;-2.07;-6.32;-6.32;-3.16
-0.76;5.12;3.48;-9.58;-11.98;-24.07
2.50;3.48;-5.34;-7.95;-21.67;-18.40
7.30;0.22;-1.31;-9.58;-21.67;2.50
2.50;5.12;-1.31;-2.29;-16.88;16.23
3.27;25.26;-1.31;5.77;-16.88;25.05
1.74;0.22;-1.31;10.56;-3.92;19.38
5.77;-5.34;-0.54;24.28;4.90;25.05
-2.29;-6.21;-1.31;11.43;10.56;14.59
-0.76;-3.81;-11.00;-3.05;8.93;4.90
21.02;-0.54;1.09;-2.29;14.59;-3.92
1.74;-5.34;-1.31;-5.55;15.35;-6.32
-2.29;1.85;-1.31;-2.29;16.99;1.74
0.11;3.48;0.33;-32.13;12.96;1.74
5.77;-20.69;-0.54;-2.29;5.77;4.14
-0.76;5.12;-5.34;-1.52;0.11;-7.19
-1.52;-2.18;-1.31;-2.29;-5.55;-3.16
-2.29;2.72;1.09;9.80;-9.58;-6.32
-0.76;0.22;1.96;10.56;-8.82;-0.76
1.74;4.25;1.09;10.56;1.74;-6.32
3.27;1.09;-9.37;3.38;4.90;1.74
4.14;4.25;-0.54;-6.32;6.53;1.74
3.27;3.48;-0.54;-3.92;23.41;1.74
3.27;-3.81;-2.07;0.98;18.62;-0.76
18.62;-3.81;-1.31;-2.29;9.80;-2.29
1.74;-5.34;-1.31;-3.92;4.14;-8.82
3.27;5.12;-1.31;-3.92;-4.79;-8.82
21.89;-6.21;-1.31;-2.29;10.56;-12.85
2.50;-4.57;-1.31;-2.29;-16.88;-7.19
21.89;2.72;-1.31;0.98;-16.88;-6.32
1.74;1.85;-2.07;0.98;-15.25;-4.79
2.50;-5.34;-2.07;0.11;-13.61;-24.94
5.77;13.18;-1.31;-0.65;-7.19;12.96
3.27;5.12;-1.31;-1.52;15.35;15.35
-2.29;-3.81;-0.54;0.11;21.89;27.44
-3.92;16.33;-1.31;0.11;23.41;13.83
-3.92;-2.94;-1.31;-3.05;16.99;9.80
3.27;1.85;3.48;-1.52;8.17;0.11
12.20;0.22;6.75;-0.65;-6.32;-10.35
-1.52;-2.94;-17.42;-4.68;-20.04;-13.61
-5.55;4.25;-1.31;-3.92;-31.36;-2.29
-0.76;5.12;-0.54;10.56;-34.52;-6.32
3.27;1.85;-1.31;-6.32;-28.86;-8.82
4.14;2.72;-1.31;-1.52;-20.91;7.30
3.27;3.48;-2.07;-4.68;-3.92;9.80
3.27;5.12;-1.31;-7.08;-3.92;7.30
2.50;-2.18;-2.07;-3.92;0.11;-0.76
-1.52;-2.18;-1.31;-17.64;-12.85;-5.55
-22.43;0.22;-1.31;2.50;12.20;-3.16
-7.95;-2.18;-2.94;4.14;16.99;-3.92
-3.16;-3.81;-2.07;8.17;13.83;0.11
0.87;-6.97;1.09;-19.17;17.86;1.74
-10.35;-9.37;-0.54;1.74;21.02;4.14
3.27;-10.24;-1.31;3.38;5.77;1.74
-0.76;-2.94;-0.54;-0.65;4.14;0.11
-5.55;-0.54;-1.31;-0.65;-2.29;1.74
-4.79;-6.21;-1.31;-28.10;-7.19;-0.76
-5.55;1.85;1.09;-2.29;17.86;1.74
0.87;5.12;-1.31;-4.68;-9.58;1.74
-0.76;-0.54;0.33;5.77;-19.28;-2.29
-3.92;17.21;0.33;38.77;-8.82;-2.29
0.11;2.72;4.36;8.17;8.93;0.11
-16.88;-23.96;-0.54;-1.52;7.30;-7.19
0.87;26.79;-0.54;19.49;7.30;-3.16
7.30;-2.18;-1.31;12.20;4.90;1.74
3.27;30.82;-2.07;-15.14;2.50;1.74
-0.76;-2.94;2.72;-10.35;0.11;1.74
2.50;-5.34;1.96;-15.14;4.90;6.53
11.33;1.09;-0.54;-2.29;4.90;-3.16
1.74;3.48;-1.31;0.11;4.90;5.77
3.27;-7.84;10.78;9.80;0.87;-0.76
0.87;-0.54;13.94;4.14;-6.32;1.74
-3.92;0.22;-0.54;-3.92;-6.32;1.74
0.87;4.25;13.18;10.56;0.87;3.27
-2.29;-2.18;-2.07;9.80;-10.35;3.27
3.27;3.48;2.72;9.80;-3.16;1.74
8.17;0.22;-2.07;3.38;-3.16;-18.40
0.11;-7.84;-1.31;0.11;-7.19;-24.07
-0.76;4.25;-1.31;-3.92;1.74;-4.79
-0.76;5.12;1.96;-2.29;6.53;2.50
-1.52;25.26;-0.54;-4.68;5.77;1.74
-1.52;-3.81;-15.03;1.74;4.90;1.74
-0.76;5.12;-1.31;-15.14;-20.91;0.11
-2.29;-1.31;-3.70;-3.05;-2.29;0.87
-7.95;-2.18;-1.31;-0.65;-7.19;-3.16
3.27;-3.81;-1.31;-3.92;0.11;0.87
8.93;-3.81;-1.31;-3.05;4.14;6.53
4.14;5.88;-0.54;-1.52;4.90;18.62
3.27;1.09;1.09;-0.65;4.14;18.62
-0.76;-2.18;2.72;0.98;4.90;1.74
-2.29;5.12;0.33;-2.29;0.87;-13.61
-27.33;2.72;0.33;2.50;-0.76;-19.28
-7.19;-18.30;-0.54;-25.70;-4.79;-16.01
-10.35;-4.57;-0.54;6.53;-6.32;-15.25
-10.35;2.72;2.72;4.14;-13.61;-0.76
2.50;-2.94;1.09;0.98;-11.98;-2.29
-0.76;21.24;-1.31;-27.22;-7.19;4.14
-0.76;-13.39;1.09;-2.29;-15.25;6.53
-0.76;-2.18;-0.54;-3.92;-2.29;16.23
1.74;1.09;0.33;-2.29;5.77;16.23
1.74;-2.18;-2.07;4.14;1.74;19.38
-1.52;1.09;15.57;10.56;7.30;2.50
3.27;1.09;-1.31;6.53;6.53;-3.16
3.27;-8.60;-1.31;0.11;9.80;-5.55
-13.61;-8.60;-2.94;-3.05;8.93;-8.82
-7.19;-0.54;-1.31;-9.58;2.50;-6.32
-0.76;3.48;-2.94;-9.58;0.11;-26.46
4.14;4.25;-0.54;1.74;4.90;-3.16
3.27;3.48;-2.07;0.11;4.90;10.56
25.92;5.12;-0.54;-0.65;5.77;0.87
4.14;5.12;-23.09;3.38;6.53;-36.15
2.50;1.09;-0.54;-0.65;4.90;17.86
2.50;-2.18;-0.54;1.74;3.27;-11.22
33.11;-0.54;-0.54;3.38;-2.29;-8.82
0.11;-6.21;0.33;2.50;-3.16;-5.55
-10.35;-2.18;0.33;-0.65;-0.76;5.77
3.27;-0.54;1.96;1.74;-16.88;10.56
1.74;-0.54;4.36;-27.22;0.87;8.93
-10.35;-3.81;-1.31;-0.65;-3.92;6.53
2.50;-2.94;-1.31;-3.92;-8.82;9.80
2.50;1.09;12.41;-2.29;-7.19;-1.52
-0.76;-2.18;-2.07;-6.32;-5.55;-7.19
-1.52;-3.81;-3.70;-1.52;0.87;-24.94
-5.55;-10.24;-3.70;8.17;4.14;-11.22
15.35;4.25;1.09;9.04;2.50;-7.19
4.90;4.25;-9.37;0.11;-1.52;-1.52
-14.37;-5.34;-0.54;-7.08;-3.92;-1.52
-0.76;2.72;-4.57;-9.58;-6.32;3.27
-0.76;-0.54;-0.54;-9.58;0.87;15.35
1.74;5.12;-1.31;-12.74;4.90;9.80
0.87;-2.18;-0.54;-5.55;0.87;0.87
3.27;1.85;-0.54;-4.68;0.87;-0.76
3.27;-0.54;-16.66;-2.29;4.90;12.96
4.90;-0.54;-1.31;0.11;4.14;-10.35
0.87;-5.34;-0.54;0.98;-3.92;-0.76
-10.35;-3.81;-0.54;6.53;-3.16;0.87
1.74;-2.18;-1.31;10.56;-6.32;-0.76
-7.19;2.72;-0.54;-3.05;-9.58;-3.16
3.27;4.25;-24.72;-3.92;-8.82;-3.92
-0.76;-2.18;-1.31;0.11;-5.55;-3.16
0.87;0.22;0.33;-0.65;-0.76;-0.76
20.26;1.09;-1.31;2.50;20.26;-2.29
-2.29;-8.60;-1.31;2.50;13.83;-3.92
21.02;0.22;-1.31;5.77;20.26;-5.55
-1.52;3.48;-0.54;6.53;23.41;-3.92
5.77;0.22;10.02;5.01;17.86;1.74
0.87;1.09;-1.31;5.77;16.99;2.50
0.87;-2.94;0.33;2.50;13.83;4.14
2.50;1.09;-1.31;-12.74;4.14;1.74
2.50;1.85;-1.31;-0.65;-11.98;12.96
0.87;2.72;-1.31;9.04;-20.91;0.87
-8.82;-13.39;-1.31;-0.65;-28.10;1.74
1.74;-0.54;-19.06;0.98;-26.46;-23.30
0.87;1.09;-0.54;-3.92;-36.15;1.74
-0.76;2.72;-1.31;-6.32;-5.55;4.14
-3.92;1.09;0.33;-1.52;7.30;10.56
-0.76;-2.94;-11.00;-2.29;14.59;3.27
-11.98;-4.57;-1.31;2.50;33.98;-12.85
-14.37;-2.94;-1.31;-3.05;36.37;-16.01
-7.95;-5.34;-1.31;9.80;7.30;-11.22
1.74;1.09;-2.07;-2.29;19.38;4.90
8.93;-2.18;1.09;9.80;12.96;15.35
12.96;1.09;-0.54;9.80;7.30;12.20
13.83;1.09;-1.31;8.17;-8.82;11.33
42.80;4.25;-1.31;0.98;-12.85;6.53
3.27;-0.54;-1.31;-3.92;-20.91;1.74
1.74;3.48;-1.31;-7.95;-21.67;-7.19
-7.19;-2.94;-0.54;-3.92;-16.01;-9.58
-5.55;-2.18;1.09;-8.71;-28.10;-3.92
3.27;-1.31;-0.54;-2.29;-16.88;1.74
-0.76;1.09;0.33;-6.32;-13.61;-8.82
-3.92;-2.94;0.33;-4.68;4.14;-6.32
-3.92;0.22;-1.31;6.53;8.93;-7.19
1.74;1.09;1.09;-0.65;17.86;-5.55
-0.76;-2.18;-8.60;1.74;12.20;-0.76
2.50;-3.81;0.33;0.11;4.90;3.27
3.27;1.85;13.94;0.98;4.90;11.33
-2.29;1.09;-1.31;0.11;-3.16;1.74
-2.29;1.85;-1.31;-3.05;-8.82;0.87
-2.29;2.72;-0.54;1.74;-3.92;12.96
-3.92;-20.69;-1.31;-1.52;-1.52;-0.76
2.50;-0.54;-1.31;-2.29;2.50;4.14
4.14;2.72;-2.07;-2.29;5.77;0.11
4.90;4.25;-1.31;5.77;16.99;-2.29
3.27;0.22;5.99;-0.65;13.83;-6.32
1.74;1.09;-21.45;-0.65;16.23;-36.15
3.27;0.22;1.96;9.04;7.30;-8.82
-0.76;0.22;-1.31;5.01;4.14;-11.22
-3.92;-5.34;-26.24;10.56;4.14;-31.36
-5.55;-6.97;-0.54;17.86;0.87;-0.76
-0.76;2.72;-1.31;10.56;-0.76;-3.16
3.27;-23.96;-1.31;-0.65;4.90;4.90
3.27;2.72;-1.31;-2.29;4.90;-24.07
-35.39;-7.84;0.33;-9.58;5.77;2.50
5.77;-2.18;1.96;-16.01;6.53;4.14
3.27;-2.94;-1.31;-15.14;3.27;4.90
3.27;-2.18;-1.31;-10.35;4.90;1.74
-3.92;0.22;-1.31;0.11;3.27;6.53
0.87;-0.54;-1.31;0.11;0.11;1.74
-8.82;-0.54;-1.31;10.56;-4.79;4.14
3.27;1.09;-1.31;10.56;-2.29;-24.07
-6.32;3.48;12.41;10.56;-2.29;1.74
-11.98;1.09;-1.31;8.17;0.11;5.77
-6.32;1.09;-1.31;-0.65;5.77;10.56
3.27;-0.54;-1.31;-2.29;4.90;7.30
-0.76;-6.97;-1.31;-35.28;7.30;1.74
-7.19;1.09;-1.31;-14.37;8.17;-3.92
-1.52;1.09;0.33;-10.35;4.14;1.74
1.74;0.22;-0.54;-2.29;-6.32;-1.52
1.74;0.22;0.33;-0.65;-20.91;-3.92
4.90;-2.18;-0.54;10.56;-13.61;-11.22
15.35;-8.60;-1.31;13.07;-20.04;-6.32
3.27;-2.94;-1.31;8.17;-19.28;-7.19
2.50;-0.54;-18.19;-2.29;-20.91;-11.22
-0.76;-19.93;-0.54;-7.08;-20.04;-12.85
3.27;4.25;1.96;-14.37;-15.25;-15.25
-36.15;-2.18;-1.31;-15.14;4.90;-9.58
-4.79;-3.81;-1.31;-30.49;4.90;-8.82
-4.79;2.72;-1.31;-5.55;20.26;-24.07
-1.52;-2.94;-1.31;-2.29;11.33;-3.16
0.11;1.09;-3.70;1.74;9.80;-11.22
-22.43;1.09;-2.07;0.98;4.90;1.74
-3.92;-6.21;-3.70;1.74;-7.19;4.14
-5.55;-0.54;-16.66;10.56;-9.58;28.31
-3.92;-2.94;25.26;9.80;-13.61;2.50
-1.52;3.48;-2.07;2.50;-9.58;1.74
-0.76;5.12;-2.94;7.41;-11.22;-10.35
3.27;5.12;1.09;-0.65;-0.76;-7.19
3.27;-2.18;-2.07;2.50;2.50;3.27
-1.52;5.12;-1.31;-3.92;4.90;1.74
24.28;4.25;-1.31;2.50;8.17;1.74
0.87;5.12;-0.54;8.17;7.30;4.14
1.74;0.22;1.09;3.38;3.27;9.80
-4.79;1.09;-0.54;-2.29;-0.76;7.30
-24.94;-5.34;0.33;1.74;3.27;6.53
4.14;1.09;1.09;-2.29;12.20;25.05
20.26;1.09;1.09;-1.52;15.35;15.35
12.20;5.88;1.09;7.41;22.65;14.59
0.87;-2.18;0.33;-3.92;15.35;7.30
-21.67;30.06;-0.54;-0.65;21.02;1.74
1.74;-3.81;2.72;-1.52;17.86;-3.92
-1.52;1.09;-2.07;-1.52;5.77;21.89
-22.43;31.69;-0.54;-2.29;3.27;-7.19
-2.29;2.72;-1.31;-1.52;-3.16;1.74
3.27;4.25;-2.94;5.77;-6.32;0.87
-27.33;4.25;-1.31;0.11;-10.35;-4.79
1.74;-3.81;0.33;3.38;-39.42;-13.61
-5.55;-0.54;-1.31;5.01;-28.10;-17.64
-1.52;-5.34;0.33;-2.29;-20.04;-11.98
-23.30;-2.94;0.33;12.20;-19.28;-6.32
-20.91;2.72;2.72;27.55;-34.52;-11.98
0.87;18.73;-1.31;11.43;-16.01;-7.95
12.96;1.09;-1.31;-3.92;-8.82;-2.29
-3.92;-3.81;-1.31;0.11;4.90;-0.76
-1.52;0.22;-1.31;-3.92;4.90;-2.29
0.87;0.22;1.09;-7.08;-10.35;1.74
-3.92;-2.18;-3.70;-1.52;0.87;-2.29
-6.32;-4.57;1.09;-4.68;-2.29;-7.19
-0.76;-2.94;-1.31;-3.05;-6.32;1.74
-1.52;-5.34;-0.54;-2.29;-7.95;16.99
5.77;-2.94;-1.31;25.05;-8.82;16.23
1.74;-8.60;-1.31;1.74;-7.19;9.80
2.50;0.22;-1.31;2.50;-5.55;34.74
5.77;2.72;9.15;0.11;8.93;6.53
3.27;-2.18;-1.31;1.74;8.93;13.83
3.27;-0.54;1.96;6.53;13.83;10.56
-1.52;0.22;20.47;2.50;16.23;8.93
-1.52;22.76;-0.54;2.50;4.90;-6.32
0.11;-2.18;0.33;2.50;4.90;-8.82
2.50;5.88;-0.54;0.98;7.30;-9.58
-7.19;2.72;1.96;0.98;12.20;-11.22
-29.73;-19.06;-1.31;9.04;4.90;-9.58
4.90;1.09;-0.54;0.98;-0.76;-9.58
3.27;-5.34;8.39;-3.92;-7.95;-11.22
3.27;-3.81;-27.12;-2.29;-7.95;-0.76
-9.58;1.85;-1.31;-0.65;-4.79;-0.76
-2.29;3.48;-0.54;-4.68;-3.92;5.77
-6.32;0.22;-1.31;-2.29;0.87;8.93
-33.76;2.72;2.72;3.38;15.35;15.35
-3.92;-2.18;-1.31;5.77;10.56;6.53
-0.76;2.72;0.33;5.01;6.53;0.87
0.87;-2.18;-1.31;16.23;2.50;2.50
7.30;1.09;-12.63;9.80;1.74;16.99
-22.43;-7.84;-1.31;-0.65;6.53;-3.92
-4.79;-2.94;-1.31;-2.29;14.59;0.87
4.14;-0.54;-1.31;-16.01;19.38;-2.29
-0.76;4.25;0.33;-7.95;15.35;0.11
7.30;0.22;1.09;-10.35;6.53;1.74
3.27;-2.18;-1.31;-4.68;-7.19;0.87
-2.29;4.25;-1.31;-3.92;-11.98;-8.82
-2.29;0.22;0.33;-7.08;-23.30;-2.29
3.27;-5.34;0.33;-7.08;-34.52;1.74
2.50;3.48;-1.31;-3.92;-37.79;0.87
3.27;0.22;-1.31;-0.65;-37.79;0.11
-1.52;-3.81;-1.31;2.50;-28.86;5.77
-2.29;-3.81;-3.70;-0.65;-13.61;-5.55
34.74;0.22;-13.39;2.50;2.50;4.14
-1.52;-6.21;-1.31;-1.52;4.90;-7.19
-4.79;-5.34;1.09;6.53;10.56;-2.29
-0.76;0.22;-1.31;-2.29;13.83;-3.92
-7.19;13.94;-1.31;16.23;15.35;-2.29
2.50;-16.66;-1.31;2.50;16.23;0.11
5.77;-0.54;-2.07;2.50;12.20;-0.76
0.11;-17.42;-1.31;-3.05;12.96;0.11
0.11;3.48;-1.31;-1.52;7.30;-3.16
-3.92;1.09;-1.31;-1.52;6.53;1.74
0.87;-0.54;0.33;-3.05;-10.35;0.11
-10.35;-6.97;-1.31;-0.65;2.50;1.74
-7.19;-3.81;-0.54;0.11;0.11;0.87
3.27;-0.54;-0.54;-2.29;-7.19;1.74
3.27;9.91;-1.31;-2.29;-8.82;1.74
1.74;2.72;-0.54;12.20;-2.29;4.14
1.74;1.09;-1.31;-12.74;0.87;10.56
4.14;0.22;-11.00;10.56;1.74;6.53
14.59;0.22;1.09;0.11;7.30;3.27
-3.92;4.25;-1.31;-3.92;8.17;-10.35
-8.82;-2.94;-0.54;12.20;-7.95;-3.16
-13.61;3.48;1.96;-10.35;19.38;-0.76
-4.79;-15.03;2.72;-12.74;4.90;4.90
-2.29;-3.81;-1.31;5.77;-2.29;2.50
-4.79;30.82;-0.54;-1.52;4.90;-0.76
13.83;1.09;-1.31;-1.52;-20.91;0.11
-22.43;-6.21;-0.54;-1.52;-3.92;-3.16
29.08;-5.34;-3.70;28.31;-6.32;-0.76
1.74;3.48;-2.07;5.77;-3.92;-2.29
3.27;-2.18;-1.31;3.38;-5.55;-0.76
28.31;2.72;-1.31;4.14;-11.98;-7.19
2.50;2.72;-6.10;0.11;-10.35;-3.92
2.50;2.72;-5.34;1.74;-3.16;-19.28
-0.76;-2.18;0.33;3.38;29.95;-11.98
-1.52;0.22;-0.54;9.04;29.95;-11.98
1.74;-2.18;-0.54;9.04;34.74;-3.16
-8.82;-0.54;-1.31;8.17;32.34;0.11
-1.52;1.09;-5.34;5.01;32.34;16.23
11.33;3.48;0.33;3.38;22.65;20.26
0.87;5.12;0.33;-0.65;-3.16;18.62
-1.52;-0.54;-0.54;-2.29;-28.86;16.23
-7.19;-13.39;-0.54;-6.32;-46.61;9.80
2.50;-2.94;-0.54;-6.32;-65.12;16.23
0.87;0.22;2.72;-13.61;-60.33;3.27
-3.92;-11.87;-1.31;-9.58;-57.06;1.74
-2.29;1.85;-1.31;-11.11;-42.58;-2.29
3.27;2.72;-1.31;9.80;-21.67;-6.32
3.27;1.09;-2.07;-7.95;6.53;-10.35
-0.76;-6.21;-15.03;-2.29;9.80;-9.58
-1.52;-2.94;-1.31;0.98;16.99;-10.35
4.90;-2.18;-2.94;0.11;30.71;-0.76
3.27;1.85;0.33;2.50;41.16;1.74
2.50;2.72;-1.31;6.53;41.16;2.50
3.27;5.12;-2.07;25.05;36.37;1.74
3.27;0.22;-1.31;10.56;30.71;1.74
3.27;-2.18;0.33;-6.32;12.96;-8.82
1.74;0.22;-2.07;3.38;4.90;-9.58
3.27;1.85;-1.31;8.17;6.53;-9.58
-3.92;-3.81;1.09;30.71;3.27;-0.76
-9.58;-9.37;1.09;-2.29;-5.55;-28.10
-11.98;-26.35;2.72;-0.65;-9.58;-0.76
-2.29;-2.18;-1.31;-4.68;-14.37;0.87
-7.19;-0.54;-1.31;-4.68;-9.58;8.93
1.74;-4.57;13.94;-2.29;-11.98;2.50
-0.76;-2.18;-1.31;-3.05;-16.01;4.14
3.27;-6.97;-1.31;-5.55;-20.91;1.74
3.27;-2.94;-5.34;-12.74;-20.04;0.11
2.50;2.72;-1.31;16.23;-6.32;-5.55
3.27;5.12;-0.54;-2.29;7.30;-2.29
2.50;1.09;3.48;-2.29;16.23;0.11
-0.76;5.12;20.47;-2.29;18.62;1.74
1.74;-1.31;-1.31;6.53;17.86;9.80
3.27;1.09;-1.31;9.80;12.96;16.99
8.17;-20.69;-0.54;6.53;12.96;4.14
4.14;2.72;-2.94;3.38;4.14;-7.19
1.74;-0.54;-0.54;2.50;3.27;-11.22
-3.92;-10.24;0.33;5.77;-1.52;-3.16
-7.19;0.22;-0.54;3.38;-3.92;0.87
-15.25;-0.54;1.96;2.50;-7.19;-7.19
0.87;-6.97;2.72;-2.29;-9.58;-7.19
2.50;3.48;0.33;-0.65;-7.95;-6.32
-0.76;1.09;-1.31;-2.29;-11.22;-7.19
0.11;1.09;-0.54;-3.05;-11.98;-2.29
-30.49;-31.15;-1.31;-0.65;-3.92;0.87
-2.29;-4.57;-2.94;-3.05;-3.16;-0.76
-4.79;-19.93;-2.94;-2.29;-3.16;-7.95
1.74;-2.18;-3.70;9.04;4.14;1.74
2.50;-2.18;-1.31;9.04;10.56;4.14
0.87;-7.84;-9.37;10.56;17.86;39.53
8.17;5.88;0.33;16.23;31.47;12.20
4.14;4.25;-1.31;-2.29;23.41;1.74
-9.58;-2.18;-2.07;-4.68;9.80;1.74
3.27;4.25;-1.31;-1.52;10.56;-7.19
3.27;-2.18;-2.07;-2.29;7.30;-8.82
1.74;-5.34;3.48;-1.52;16.23;-3.92
-5.55;0.22;3.48;8.17;14.59;2.50
3.27;-2.94;-0.54;6.53;28.31;9.80
2.50;-25.48;-0.54;6.53;20.26;4.14
-2.29;1.85;-1.31;0.98;2.50;-3.92
-1.52;2.72;-1.31;-24.07;-20.91;-11.22
-5.55;2.72;-8.60;-10.35;-32.13;-12.85
-5.55;-0.54;-1.31;-15.14;-42.58;-12.85
-7.19;-3.81;-2.07;-13.61;-40.95;-18.40
-5.55;0.22;-29.51;-12.74;-46.61;-11.22
-4.79;5.12;-0.54;3.38;-36.92;-3.16
0.87;0.22;-0.54;-23.20;-16.01;6.53
2.50;-2.18;-1.31;17.10;17.86;27.44
3.27;-2.18;-2.07;10.56;29.08;23.41
3.27;5.12;-1.31;14.59;43.56;18.62
3.27;1.09;0.33;-13.61;30.71;9.80
4.14;3.48;-2.07;-23.20;21.89;16.23
1.74;2.72;-1.31;-17.64;6.53;-8.82
-2.29;4.25;-1.31;-15.14;-3.92;-15.25
-22.43;-9.37;-1.31;-9.58;-10.35;-14.37
0.11;4.25;0.33;0.11;-19.28;-7.19
-10.35;2.72;-1.31;5.01;-20.91;-7.19
3.27;0.22;-2.07;9.80;-11.98;3.27
-5.55;3.48;-1.31;10.56;-5.55;-7.19
-10.35;17.97;-0.54;-12.74;6.53;2.50
-9.58;-0.54;18.84;10.56;17.86;6.53
-3.92;-2.94;1.09;10.56;26.68;6.53
13.83;-6.97;2.72;2.50;30.71;1.74
8.93;0.22;0.33;7.41;31.47;-2.29
8.93;0.22;-1.31;1.74;27.44;-2.29
1.74;-2.18;-1.31;-0.65;15.35;-7.19
3.27;-2.18;-0.54;3.38;6.53;-9.58
0.87;-2.18;-1.31;5.01;-8.82;1.74
-11.22;-2.18;-1.31;-2.29;-18.40;1.74
-29.73;5.12;1.09;-3.05;-22.43;1.74
16.23;-0.54;-1.31;0.11;-28.10;9.80
2.50;-2.18;-2.07;-2.29;-22.43;1.74
3.27;-0.54;-1.31;-31.25;-20.91;-0.76
0.87;-6.97;-1.31;-16.77;-20.91;-6.32
-3.16;-3.81;-1.31;-3.05;-23.30;-2.29
0.11;-0.54;-1.31;-1.52;4.14;-7.19
-0.76;-0.54;0.33;0.11;4.90;-3.16
3.27;-2.18;-0.54;-16.77;0.87;-5.55
0.87;1.85;0.33;4.14;4.90;-4.79
-7.95;2.72;0.33;-3.92;4.14;-11.22
1.74;-0.54;-0.54;-10.35;4.90;10.56
24.28;1.09;0.33;-7.95;4.90;7.30
-2.29;-2.18;-2.07;-2.29;17.86;-2.29
-0.76;-3.81;-0.54;-3.92;12.96;-2.29
17.86;-3.81;-0.54;34.74;5.77;-3.92
-3.92;-3.81;-21.45;2.50;-2.29;-23.30
-0.76;-6.97;-1.31;-3.05;-16.88;-19.28
-4.79;1.09;-1.31;-3.92;-21.67;-11.22
-6.32;-5.34;-1.31;-2.29;-20.91;-3.16
-9.58;-2.18;-1.31;0.11;-16.88;1.74
1.74;-4.57;-0.54;0.11;-13.61;5.77
-0.76;-2.94;0.33;-1.52;-7.19;13.83
3.27;-1.31;-2.07;5.77;4.90;15.35
5.77;2.72;-1.31;6.53;10.56;12.96
4.14;-2.18;-1.31;19.49;14.59;1.74
2.50;13.94;0.33;25.92;20.26;-10.35
-0.76;-2.18;-1.31;2.50;18.62;0.87
4.14;-0.54;6.75;3.38;18.62;0.87
4.90;4.25;-0.54;0.11;9.80;-3.16
-4.79;3.48;-1.31;1.74;0.87;-11.22
-10.35;-2.18;-1.31;-9.58;-7.19;-16.88
-3.92;-3.81;14.81;-2.29;-10.35;-16.01
-3.92;1.85;1.09;1.74;-10.35;13.83
-2.29;1.09;0.33;-1.52;15.35;12.20
-2.29;-2.18;-2.07;-5.55;-23.30;9.80
2.50;2.72;-1.31;-2.29;17.86;14.59
-8.82;-2.94;-2.07;-2.29;4.90;8.93
3.27;1.09;-2.07;-3.05;7.30;12.96
3.27;34.85;-1.31;0.98;6.53;12.20
4.14;3.48;-1.31;1.74;4.90;4.14
1.74;-5.34;-2.07;0.98;6.53;-0.76
-1.52;-7.84;-2.07;-27.22;9.80;1.74
-7.95;17.21;0.33;-19.17;5.77;-2.29
1.74;-2.18;-1.31;3.38;4.90;0.87
3.27;5.88;-1.31;-11.11;3.27;-3.16
-0.76;1.09;-0.54;-1.52;-2.29;-6.32
33.98;-2.94;0.33;0.11;-7.19;-6.32
-22.43;-35.17;-0.54;-3.05;-16.01;7.30
-3.92;30.82;-1.31;-2.29;-16.01;-9.58
0.87;-2.94;0.33;-3.92;-11.98;-3.16
0.87;0.22;0.33;-4.68;-7.95;-6.32
1.74;-3.81;1.09;-3.05;-3.16;-6.32
-2.29;-6.97;-1.31;-7.95;0.11;-3.16
-5.55;-6.21;-0.54;-6.32;-2.29;-6.32
-3.92;-2.18;-1.31;-3.05;-0.76;-4.79
-1.52;-6.97;-1.31;-7.08;4.90;0.11
-3.16;-6.21;-1.31;2.50;6.53;-2.29
-11.98;-2.18;-2.94;10.56;15.35;-23.30
-11.98;2.72;-1.31;10.56;13.83;1.74
-0.76;3.48;19.60;1.74;5.77;1.74
4.90;2.72;-0.54;-1.52;2.50;1.74
-0.76;3.48;-1.31;-2.29;-2.29;1.74
3.27;1.85;5.12;-2.29;-7.19;2.50
25.05;3.48;0.33;-3.05;-7.19;-1.52
8.93;-0.54;1.09;-3.92;-0.76;1.74
4.90;-2.18;-0.54;-2.29;4.14;0.11
2.50;-6.21;1.09;3.38;4.14;1.74
-0.76;-2.18;-0.54;2.50;-5.55;1.74
-3.92;-28.75;-1.31;2.50;8.93;1.74
-0.76;-3.81;-1.31;-4.68;16.99;1.74
-1.52;-0.54;2.72;0.11;7.30;4.14
3.27;-4.57;-0.54;5.01;10.56;19.38
2.50;1.09;1.09;-0.65;-7.19;10.56
-4.79;0.22;-1.31;-4.68;-4.79;19.38
0.11;-1.31;-1.31;-16.01;1.74;2.50
-14.37;2.72;-1.31;-3.92;-3.92;1.74
0.87;-0.54;-5.34;-2.29;-8.82;-8.82
-7.19;1.09;-1.31;-3.05;-19.28;-15.25
2.50;1.85;-1.31;-7.08;-12.85;-2.29
-3.92;1.85;-1.31;-14.37;-11.98;-15.25
3.27;2.72;-1.31;-6.32;-20.91;-18.40
0.87;-2.94;-23.85;-6.32;-13.61;-18.40
-3.92;-2.94;-2.07;-2.29;-11.22;0.87
3.27;-1.31;-1.31;5.01;-3.92;-18.40
4.90;0.22;1.96;14.59;2.50;1.74
1.74;3.48;-1.31;16.23;4.90;1.74
4.14;3.48;-2.94;-9.58;30.71;1.74
1.74;-0.54;1.09;-6.32;9.80;-6.32
0.87;0.22;-0.54;-37.79;4.90;-2.29
0.11;-0.54;4.36;-10.35;4.90;-8.82
-4.79;-6.97;2.72;-15.14;4.90;-7.19
-5.55;0.22;-1.31;-6.32;16.23;-11.22
-7.19;-2.94;1.96;-0.65;16.99;-5.55
-9.58;-5.34;-1.31;-7.08;4.90;-7.19
-7.19;-2.18;-0.54;-0.65;4.90;1.74
11.33;-4.57;1.09;0.11;0.11;14.59
7.30;0.22;-1.31;5.77;-9.58;33.11
0.11;-2.94;-3.70;-14.37;-10.35;29.95
-1.52;0.22;-2.07;5.77;0.11;10.56
3.27;2.72;-1.31;-12.74;-3.16;1.74
5.77;2.72;-1.31;5.01;0.11;0.87
3.27;0.22;-1.31;-2.29;-2.29;4.14
-2.29;-3.81;-2.07;0.11;2.50;-3.16
-3.16;-0.54;-1.31;4.14;4.14;-0.76
2.50;1.09;-1.31;-1.52;6.53;1.74
1.74;2.72;-1.31;6.53;4.90;8.93
3.27;-0.54;3.48;-5.55;12.20;9.80
0.87;0.22;-0.54;11.43;4.90;1.74
1.74;-6.97;1.96;26.68;13.83;-18.40
1.74;-6.21;-1.31;3.38;9.80;-7.19
-0.76;-6.21;-1.31;-6.32;4.90;1.74
-4.79;1.09;1.09;-14.37;-2.29;4.14
-7.95;-2.18;0.33;-17.64;-33.76;1.74
0.11;-18.30;0.33;-12.74;-8.82;3.27
-7.19;2.72;-1.31;22.65;-11.98;5.77
-0.76;0.22;2.72;-3.92;-7.19;6.53
-5.55;5.12;-1.31;-6.32;-7.95;0.87
6.53;4.25;0.33;-1.52;-7.19;4.14
5.77;-0.54;-3.70;-3.05;-3.16;-23.30
-3.92;-0.54;-1.31;5.01;4.14;-8.82
-5.55;1.09;-1.31;8.17;7.30;-6.32
-14.37;-3.81;-0.54;5.01;12.96;-8.82
-5.55;-0.54;4.36;1.74;-3.16;-7.19
3.27;-0.54;18.84;9.04;15.35;-3.92
3.27;0.22;-1.31;5.77;5.77;-7.95
4.14;14.70;1.09;2.50;4.90;-16.01
5.77;-0.54;-0.54;-2.29;2.50;-3.92
8.93;-2.18;-0.54;1.74;1.74;1.74
8.17;4.25;28.53;-3.05;-4.79;0.11
-0.76;-2.18;1.09;-2.29;-11.98;1.74
-3.92;13.18;1.96;9.04;-20.91;0.87
-7.95;0.22;-23.85;-7.08;-16.88;-0.76
-4.79;-3.81;0.33;-3.92;-13.61;4.14
-11.98;-24.72;-1.31;-6.32;-13.61;-16.88
-7.19;-3.81;-1.31;0.11;-17.64;0.11
-5.55;-4.57;-1.31;-3.05;-0.76;0.87
-1.52;-2.18;-1.31;-2.29;4.14;1.74
4.14;4.25;-3.70;-2.29;10.56;2.50
-11.98;2.72;-2.94;3.38;5.77;0.11
3.27;-0.54;-0.54;6.53;13.83;5.77
0.87;-3.81;-3.70;0.11;10.56;1.74
2.50;-2.94;-6.97;0.98;16.23;0.87
8.93;-5.34;-5.34;25.92;13.83;0.87
0.87;-2.18;2.72;5.01;8.93;1.74
0.87;4.25;-0.54;0.98;4.14;1.74
8.93;1.85;1.09;-1.52;4.14;1.74
0.87;1.85;0.33;2.50;-4.79;-5.55
-3.92;-1.31;1.09;-0.65;6.53;-9.58
0.87;-2.18;-1.31;0.98;5.77;-1.52
3.27;-2.94;4.36;2.50;9.80;2.50
15.35;-5.34;3.48;-1.52;4.90;3.27
2.50;-2.94;1.09;-3.05;8.93;3.27
-1.52;7.51;-1.31;8.17;1.74;3.27
0.87;-2.94;-0.54;1.74;-0.76;0.11
-2.29;-0.54;-1.31;-15.14;-20.04;-6.32
-5.55;-2.94;-4.57;-7.08;-20.91;-11.22
3.27;-3.81;-2.94;-15.14;-20.04;-11.22
-2.29;3.48;11.54;-7.08;-18.40;-8.82
3.27;-3.81;-1.31;-10.35;-20.91;-6.32
2.50;0.22;-1.31;-2.29;-13.61;-2.29
1.74;4.25;1.09;-3.92;-7.19;1.74
0.87;1.85;-0.54;-1.52;-2.29;-7.95
3.27;-2.18;0.33;-1.52;-2.29;-4.79
0.87;-2.94;-1.31;-1.52;4.90;3.27
2.50;-2.94;-1.31;5.01;6.53;4.14
-11.98;-0.54;-2.07;5.77;4.14;7.30
-0.76;-0.54;-0.54;44.43;5.77;14.59
-30.49;-9.37;3.48;5.01;8.93;14.59
0.87;0.22;-1.31;2.50;8.93;10.56
-5.55;-2.18;-1.31;-3.05;2.50;38.01
0.87;5.12;3.48;-3.92;4.14;16.23
-11.22;-2.94;-2.07;-3.92;4.90;12.96
-5.55;1.09;-1.31;-7.95;-2.29;-9.58
-4.79;-3.81;-10.13;-3.05;4.90;-11.22
1.74;4.25;-2.07;1.74;-2.29;-7.19
4.14;-2.94;6.75;10.56;9.80;-0.76
1.74;-1.31;-8.60;9.80;5.77;-18.40
33.11;2.72;-22.22;3.38;4.90;-23.30
3.27;-2.18;-1.31;-3.05;-1.52;0.87
4.14;4.25;1.96;-11.11;-3.16;2.50
4.90;2.72;-1.31;-7.95;-5.55;16.23
0.87;-0.54;0.33;-14.37;-7.19;4.90
-1.52;4.25;-0.54;-2.29;-2.29;3.27
-4.79;-2.18;-1.31;-4.68;0.87;0.11
-3.92;4.25;-1.31;3.38;0.11;-7.19
-1.52;-2.94;-1.31;11.43;0.87;-11.98
-3.92;-2.18;-0.54;16.23;0.11;-11.98
-3.92;-2.94;-1.31;14.59;-3.16;-8.82
0.87;2.72;1.09;11.43;0.87;-0.76
-0.76;1.09;-1.31;-6.32;-7.19;-11.22
-0.76;-3.81;20.47;-13.61;-11.22;-2.29
-6.32;-8.60;-0.54;-15.14;-11.98;1.74
-7.95;18.73;-1.31;-15.14;-6.32;5.77
-3.92;1.85;-1.31;-17.64;-3.92;6.53
-7.95;-3.81;-0.54;-4.68;4.14;12.20
-3.92;-5.34;-2.07;-2.29;0.11;6.53
-7.19;-2.94;-0.54;1.74;-3.92;1.74
-0.76;-3.81;-1.31;-15.14;-8.82;7.30
8.93;1.85;-2.07;9.80;3.27;2.50
8.17;-2.18;-3.70;8.17;5.77;-6.32
-1.52;-2.94;-2.07;2.50;9.80;-7.19
4.14;-9.37;-0.54;0.11;4.14;-11.98
3.27;1.09;2.72;5.77;0.11;-18.40
0.11;1.09;-1.31;-0.65;-16.01;-7.19
-3.92;0.22;3.48;0.11;0.11;-10.35
-0.76;1.09;-1.31;-2.29;-1.52;1.74
2.50;-4.57;-1.31;-4.68;-2.29;-19.28
-7.19;0.22;-1.31;1.74;-1.52;1.74
-2.29;-8.60;0.33;-0.65;-2.29;1.74
-3.92;-23.09;-0.54;3.38;4.14;1.74
-1.52;-0.54;0.33;1.74;4.90;3.27
-1.52;1.09;1.09;1.74;4.90;-0.76
2.50;-2.18;-4.57;1.74;4.90;-3.92
3.27;1.09;0.33;1.74;12.20;1.74
0.87;-0.54;2.72;-0.65;8.93;-26.46
29.08;10.67;-1.31;-1.52;9.80;0.11
0.11;2.72;-1.31;-0.65;13.83;-0.76
3.27;-2.18;-1.31;-2.29;13.83;-10.35
1.74;2.72;-3.70;-2.29;9.80;-3.16
-12.85;-5.34;-3.70;2.50;8.93;-16.88
-10.35;1.09;-1.31;0.11;4.90;-10.35
-12.85;1.09;-0.54;0.98;4.90;1.74
-2.29;13.18;-1.31;-19.17;4.14;0.11
4.90;1.09;-1.31;9.80;-7.19;-20.04
2.50;-2.18;1.09;3.38;-19.28;-8.82
4.14;19.60;4.36;5.77;-20.04;-10.35
2.50;1.09;-0.54;1.74;-20.91;-7.95
0.87;-4.57;-2.07;-15.14;-24.07;-2.29
-2.29;-2.94;-8.60;-10.35;-28.10;1.74
-4.79;-0.54;-2.94;-7.08;-5.55;-10.35
-11.22;-6.21;-0.54;-15.14;-20.91;1.74
-14.37;-2.94;2.72;-7.08;-11.98;-24.07
21.02;-0.54;-1.31;-25.70;-0.76;2.50
3.27;-2.18;-0.54;-9.58;4.14;2.50
1.74;3.48;0.33;-7.08;8.93;13.83
-0.76;1.09;-1.31;2.50;21.89;3.27
-7.19;-2.18;-4.57;6.53;26.68;1.74
4.14;-2.18;-1.31;6.53;25.92;4.90
3.27;1.09;-3.70;2.50;19.38;5.77
3.27;2.72;-1.31;-1.52;22.65;4.90
4.90;4.25;-1.31;2.50;17.86;0.11
3.27;1.85;0.33;0.98;6.53;-3.92
0.11;0.22;-2.07;5.77;-5.55;-5.55
1.74;-0.54;-0.54;0.98;-15.25;-6.32
-15.25;-3.81;-1.31;3.38;-7.19;-7.19
2.50;-2.94;-1.31;10.56;-24.94;1.74
1.74;2.72;-1.31;8.17;-3.92;1.74
1.74;-2.94;-1.31;6.53;0.11;1.74
-7.19;15.57;0.33;-2.29;-0.76;1.74
-4.79;-2.94;-1.31;-5.55;-16.88;0.11
0.87;-12.63;-0.54;-5.55;-6.32;-6.32
-0.76;1.09;1.09;-11.98;-12.85;-16.01
-7.19;-5.34;-1.31;-11.98;-12.85;-24.07
3.27;0.22;-1.31;-6.32;-7.95;-8.82
4.90;-5.34;-1.31;-7.95;-3.92;3.27
-1.52;-3.81;1.09;-3.92;5.77;12.96
2.50;7.51;-1.31;-4.68;-6.32;16.23
-1.52;13.18;-2.94;0.11;2.50;15.35
-30.49;0.22;-2.94;6.53;0.11;5.77
2.50;-0.54;1.96;9.04;-1.52;1.74
0.87;19.60;0.33;-14.37;0.11;-3.16
-0.76;1.09;-23.85;8.17;-2.29;-11.22
-7.19;-5.34;-1.31;5.77;4.14;-6.32
3.27;-2.18;-1.31;9.04;6.53;0.87
3.27;-2.18;0.33;33.98;13.83;-0.76
4.90;1.09;1.09;26.68;13.83;0.87
2.50;-2.18;3.48;10.56;16.99;-19.28
0.87;-2.94;-0.54;0.98;12.96;-7.19
-0.76;-2.94;-0.54;11.43;-5.55;-3.16
-5.55;1.09;1.09;-17.64;7.30;0.87
-6.32;5.12;1.09;-15.14;13.83;8.93
-3.92;-2.18;-26.24;-12.74;12.20;5.77
-4.79;-7.84;-1.31;-6.32;-15.25;-11.22
-11.22;-26.35;-1.31;-21.67;-9.58;-8.82
0.11;5.12;-1.31;-4.68;-15.25;0.11
3.27;2.72;-5.34;-28.86;-19.28;1.74
7.30;17.21;-1.31;15.46;-20.91;0.87
-1.52;5.12;-1.31;1.74;-24.07;0.87
3.27;-2.18;-1.31;5.01;-20.91;4.14
-13.61;-2.18;-1.31;0.11;-20.04;22.65
-3.92;-2.94;4.36;-6.32;-11.98;-3.16
-23.30;-0.54;-0.54;-3.05;-3.92;-11.98
-4.79;3.48;-2.07;-1.52;4.14;-10.35
-3.16;3.48;-0.54;-1.52;4.14;5.77
-9.58;22.00;-1.31;-1.52;4.90;-6.32
0.87;-12.63;0.33;-12.74;4.90;1.74
3.27;-2.18;1.09;0.11;4.90;4.14
1.74;-28.75;-3.70;1.74;7.30;1.74
-4.79;-2.94;-2.07;1.74;6.53;5.77
18.62;-4.57;3.48;-1.52;4.90;4.14
3.27;2.72;1.09;-3.05;4.90;6.53
3.27;4.25;2.72;2.50;12.20;-2.29
-7.95;-0.54;1.09;7.41;20.26;1.74
-11.98;-2.94;13.18;10.56;25.92;-3.16
-4.79;-3.81;-1.31;-17.64;23.41;-3.92
-8.82;4.25;1.96;-1.52;21.89;-0.76
-5.55;-2.18;-2.07;-4.68;6.53;1.74
15.35;17.97;-1.31;-11.11;-0.76;5.77
11.33;1.09;3.48;-12.74;-11.98;27.44
2.50;0.22;-1.31;-11.11;-23.30;1.74
2.50;4.25;-1.31;-9.58;-29.73;4.90
3.27;-20.69;-1.31;-7.08;-34.52;0.11
-1.52;-2.94;-1.31;-0.65;-24.94;-31.36
0.87;1.09;5.99;1.74;-16.88;-10.35
-1.52;-3.81;-1.31;3.38;-6.32;-12.85
-0.76;-6.21;5.99;9.04;4.14;-13.61
-0.76;-1.31;0.33;0.98;10.56;-20.04
-3.92;-2.94;-1.31;-2.29;16.99;-12.85
-2.29;-2.18;0.33;-2.29;20.26;9.80
-0.76;-3.81;-1.31;5.01;16.23;10.56
3.27;1.09;-0.54;27.55;4.90;20.26
-1.52;-2.18;-1.31;-2.29;-7.95;21.89
-3.92;-2.18;-2.07;-0.65;-4.79;16.99
0.87;1.09;-0.54;-5.55;3.27;4.90
0.87;-2.18;0.33;5.01;9.80;5.77
1.74;0.22;-1.31;0.11;3.27;-10.35
-0.76;3.48;-1.31;-3.92;-6.32;6.53
-23.30;-3.81;-2.94;-1.52;-20.91;-19.28
3.27;-0.54;-2.07;-4.68;-11.98;-6.32
3.27;-28.75;-1.31;-1.52;-7.19;1.74
0.11;1.09;0.33;0.11;-3.16;19.38
0.87;1.09;-1.31;5.01;-25.70;-3.92
-2.29;-1.31;0.33;0.98;-20.04;-34.52
-10.35;-22.32;-1.31;2.50;-7.95;-7.95
-14.37;-3.81;-1.31;-2.29;-10.35;-2.29
-3.92;1.09;2.72;1.74;12.20;-3.92
3.27;5.12;-1.31;1.74;21.89;10.56
-4.79;-2.94;0.33;5.77;42.04;7.30
-0.76;-3.81;-1.31;6.53;26.68;10.56
-7.19;-2.94;-1.31;8.17;12.96;11.33
-3.92;-0.54;2.72;-0.65;4.90;9.80
-2.29;0.22;1.09;3.38;-2.29;3.27
2.50;15.57;2.72;5.77;-3.92;-3.16
4.14;-8.60;-0.54;-3.05;-9.58;-1.52
5.77;-4.57;-0.54;-9.58;-11.98;-7.19
-1.52;-31.15;-5.34;-13.61;-17.64;-9.58
-1.52;2.72;-1.31;-13.61;0.87;-13.61
1.74;-0.54;-2.07;-11.11;-8.82;0.11
0.11;-15.90;-2.94;6.53;-0.76;6.53
3.27;0.22;-2.07;-6.32;4.90;5.77
25.92;2.72;-1.31;-3.92;-8.82;1.74
2.50;-0.54;-2.07;-5.55;10.56;-2.29
3.27;-2.18;13.94;-1.52;8.93;-10.35
-3.92;-1.31;-1.31;7.41;4.14;-3.16
-19.28;-6.97;-1.31;9.04;0.11;-0.76
3.27;19.60;-0.54;9.04;-3.92;1.74
-1.52;3.48;-1.31;2.50;-7.19;0.87
1.74;-2.18;-1.31;1.74;-4.79;-12.85
17.86;-5.34;1.09;6.53;-7.19;1.74
-3.92;-0.54;-0.54;5.77;-29.73;-3.92
2.50;0.22;-1.31;1.74;-7.19;-6.32
0.87;-0.54;1.09;8.17;-3.92;-5.55
-2.29;1.85;4.36;9.04;-0.76;-3.92
-3.92;1.09;-1.31;1.74;4.14;-0.76
1.74;-2.94;-0.54;-7.08;0.87;2.50
0.11;-0.54;-1.31;-12.74;12.96;7.30
-4.79;-2.94;-1.31;11.43;16.99;2.50
-0.76;1.85;-1.31;-13.61;4.90;2.50
3.27;-2.18;-12.63;-14.37;-7.95;1.74
3.27;1.85;-16.66;-3.92;-16.01;1.74
-0.76;0.22;0.33;-0.65;-18.40;0.11
3.27;-3.81;-0.54;2.50;-20.91;-0.76
5.77;26.03;0.33;-6.32;-20.91;0.87
8.93;-3.81;-0.54;6.53;-16.88;-24.07
2.50;22.76;0.33;16.23;-5.55;-0.76
3.27;0.22;-1.31;6.53;6.53;2.50
5.77;1.09;-1.31;3.38;12.96;1.74
3.27;-2.18;-1.31;5.01;17.86;0.11
-4.79;1.09;-1.31;0.98;13.83;-24.07
-3.16;2.72;-1.31;0.11;17.86;-2.29
-5.55;-3.81;-0.54;1.74;12.96;-11.98
-7.19;-5.34;-1.31;6.53;13.83;-8.82
-10.35;-2.18;-1.31;-0.65;8.17;-32.89
5.77;-0.54;0.33;-3.05;4.90;-11.22
-4.79;-2.94;1.09;-3.92;-12.85;-7.19
-6.32;-0.54;-0.54;-3.05;-11.98;-5.55
12.20;3.48;-1.31;-4.68;-13.61;2.50
-1.52;-2.94;-3.70;11.43;-20.91;-2.29
3.27;-4.57;-3.70;-2.29;-11.98;1.74
3.27;2.72;-1.31;1.74;-4.79;36.37
1.74;-4.57;-2.94;0.11;7.30;19.38
3.27;-2.18;-2.07;-5.55;4.90;14.59
3.27;-2.18;-1.31;3.38;12.20;16.99
2.50;-5.34;0.33;1.74;15.35;10.56
3.27;-2.18;-0.54;1.74;10.56;11.33
3.27;-3.81;-8.60;-0.65;9.80;12.20
0.87;-0.54;0.33;8.17;4.90;3.27
-0.76;-5.34;-1.31;1.74;0.87;-0.76
-7.19;-0.54;-1.31;3.38;0.11;-5.55
-5.55;-4.57;0.33;5.01;-5.55;-18.40
-6.32;-2.18;5.12;10.56;4.90;-15.25
-1.52;4.25;3.48;13.07;0.11;-5.55
-2.29;-2.18;5.99;3.38;4.90;4.90
18.62;-0.54;0.33;-11.11;2.50;0.87
7.30;1.85;-1.31;-17.64;14.59;25.05
2.50;1.85;-1.31;-19.17;17.86;-5.55
2.50;2.72;-2.07;-45.85;6.53;-6.32
3.27;-3.81;-5.34;-15.14;4.90;-15.25
-2.29;-8.60;-1.31;-3.92;-10.35;-16.01
13.83;-16.66;-1.31;-4.68;-21.67;-13.61
1.74;-4.57;-6.10;3.38;-44.21;-19.28
-17.64;-2.94;-3.70;-2.29;-47.48;-18.40
4.14;1.09;-2.07;2.50;-41.82;-12.85
4.14;0.22;-0.54;6.53;-25.70;-19.28
-3.92;1.09;-2.07;1.74;-8.82;-6.32
1.74;-5.34;-1.31;2.50;4.90;1.74
0.87;-0.54;2.72;3.38;12.96;3.27
-4.79;-2.94;2.72;2.50;4.90;10.56
-11.22;-5.34;-1.31;16.23;30.71;20.26
-3.16;-6.97;-0.54;22.65;18.62;14.59
-4.79;-2.18;-1.31;-9.58;4.90;15.35
2.50;1.09;-1.31;-2.29;7.30;10.56
-36.15;-29.51;-1.31;-3.05;9.80;27.44
-4.79;0.22;-2.07;-4.68;-7.95;-5.55
0.87;-5.34;0.33;-24.07;31.47;0.11
0.11;3.48;-10.13;8.17;25.05;0.87
-14.37;1.09;-1.31;9.04;14.59;7.30
-13.61;2.72;-2.07;1.74;4.90;1.74
21.89;1.09;-2.94;-0.65;-3.92;1.74
3.27;3.48;0.33;-4.68;-15.25;1.74
0.87;1.85;0.33;-2.29;-7.95;5.77
1.74;5.12;6.75;-2.29;-0.76;8.93
0.87;4.25;-1.31;6.53;4.90;4.14
-3.92;-0.54;-2.07;0.11;5.77;0.11
-18.40;5.12;-1.31;0.11;9.80;0.11
2.50;-2.94;0.33;1.74;19.38;0.11
10.56;3.48;2.72;3.38;16.23;3.27
4.90;-2.94;1.09;5.01;4.90;0.11
21.89;-25.48;1.09;9.04;-9.58;1.74
4.14;-0.54;1.09;-1.52;-28.10;0.11
8.17;1.09;3.48;-2.29;-32.13;-3.16
2.50;-2.94;4.36;-4.68;-24.94;1.74
29.95;-0.54;0.33;-5.55;-25.70;16.23
1.74;0.22;-1.31;-10.35;-20.91;-1.52
-3.92;0.22;-1.31;-7.08;-13.61;-8.82
-1.52;-2.18;-2.07;-36.92;2.50;-11.98
0.87;-2.18;-1.31;-4.68;6.53;-7.19
3.27;-2.18;-1.31;-3.05;9.80;-11.22
0.87;-0.54;-1.31;3.38;16.99;-9.58
-0.76;0.22;-1.31;9.04;12.96;-2.29
0.87;-2.18;-1.31;8.17;9.80;-0.76
1.74;-5.34;-0.54;3.38;5.77;-0.76
0.11;-3.81;-1.31;-7.08;6.53;-19.28
3.27;5.12;-1.31;-9.58;8.93;13.83
4.14;4.25;1.09;-10.35;4.90;11.33
3.27;1.09;1.09;-3.92;4.90;4.90
2.50;-3.81;-2.07;-6.32;4.14;1.74
2.50;-0.54;-1.31;5.01;7.30;3.27
1.74;-2.18;-0.54;9.04;10.56;1.74
0.87;-2.18;-1.31;6.53;10.56;2.50
12.96;-2.94;-0.54;6.53;5.77;0.87
-4.79;0.22;3.48;8.17;12.96;1.74
-5.55;-1.31;-0.54;6.53;-5.55;6.53
-1.52;2.72;1.09;-3.05;4.14;7.30
1.74;1.09;0.33;-2.29;-5.55;3.27
-1.52;0.22;-1.31;0.11;-6.32;1.74
3.27;-3.81;-1.31;0.11;-37.79;-0.76
12.20;19.60;-1.31;-4.68;-23.30;-13.61
3.27;0.22;-3.70;-3.92;-20.91;-20.04
10.56;-2.18;-2.07;-2.29;-20.04;-17.64
-1.52;-2.94;-2.07;-2.29;-7.95;-3.92
-2.29;-3.81;13.18;-3.05;-4.79;-2.29
1.74;-2.18;-1.31;-5.55;5.77;-24.07
-4.79;-2.94;-1.31;-7.95;12.20;-0.76
-0.76;-2.18;0.33;-10.35;12.96;3.27
-0.76;-2.94;-1.31;-0.65;13.83;4.14
0.87;-2.18;0.33;9.80;4.90;2.50
-0.76;4.25;-0.54;19.49;-0.76;1.74
3.27;1.09;1.09;3.38;4.90;9.80
3.27;-0.54;5.12;10.56;3.27;1.74
2.50;2.72;-0.54;25.92;-11.98;3.27
0.11;0.22;-1.31;-3.92;-8.82;-0.76
1.74;-3.81;-1.31;0.11;-10.35;12.20
2.50;0.22;6.75;1.74;-6.32;0.87
-3.92;-2.94;-1.31;1.74;0.87;15.35
3.27;-2.94;-1.31;8.17;6.53;-0.76
0.87;30.82;-1.31;2.50;16.99;-2.29
-3.92;0.22;-1.31;8.17;23.41;0.87
-2.29;1.85;-2.94;-2.29;18.62;6.53
7.30;5.12;-1.31;-29.73;32.34;10.56
-19.28;0.22;-1.31;-12.74;33.11;14.59
3.27;1.09;-1.31;-16.01;25.05;12.96
0.11;-3.81;11.54;-7.08;1.74;12.96
2.50;-6.21;-1.31;-6.32;-18.40;7.30
3.27;-2.18;-1.31;0.98;-23.30;-20.04
3.27;-3.81;-1.31;-16.01;-32.13;-8.82
-3.92;-2.18;1.09;1.74;-39.42;-16.01
-4.79;-2.18;-2.07;0.11;-42.58;-15.25
-4.79;1.09;-1.31;10.56;-28.10;-15.25
-1.52;-5.34;-0.54;6.53;-0.76;-12.85
-0.76;-6.21;-0.54;9.04;41.16;-10.35
0.87;0.22;4.36;3.38;16.99;-6.32
17.86;2.72;0.33;-3.92;4.90;1.74
-3.92;1.09;-1.31;-7.08;-9.58;0.11
-3.92;-2.94;-2.94;-12.74;4.90;8.17
1.74;1.09;-2.07;-10.35;3.27;4.14
-4.79;-2.94;-1.31;-10.35;5.77;1.74
-6.32;-4.57;-1.31;-7.95;4.90;0.87
-7.19;-6.97;0.33;-3.92;6.53;-0.76
-3.92;2.72;1.09;-3.05;1.74;-7.19
5.77;-2.18;0.33;6.53;7.30;-3.92
20.26;3.48;-1.31;7.41;8.93;7.30
6.53;-2.94;-1.31;6.53;8.93;9.80
2.50;-2.18;-2.07;7.41;29.95;12.20
1.74;-2.94;-2.07;5.77;16.99;18.62
7.30;0.22;0.33;10.56;7.30;17.86
4.14;0.22;-1.31;5.77;0.87;20.26
0.87;-5.34;-0.54;6.53;-31.36;-3.16
3.27;-4.57;3.48;-4.68;-11.22;-10.35
3.27;-2.18;1.09;-10.35;-6.32;-13.61
-3.92;0.22;0.33;-3.92;-7.95;-7.19
-5.55;-2.18;0.33;-4.68;-0.76;1.74
-7.19;1.09;3.48;-7.95;-3.92;-3.92
-1.52;-2.18;2.72;-7.08;3.27;16.99
-0.76;4.25;-1.31;-2.29;0.87;-3.92
0.87;1.85;-0.54;-2.29;10.56;-1.52
3.27;-2.18;-1.31;3.38;9.80;-7.95
-7.19;-2.18;-2.94;-30.49;7.30;-17.64
-20.04;-15.03;-2.07;-2.29;2.50;-12.85
12.20;-0.54;-3.70;13.83;0.87;-11.98
3.27;-3.81;-1.31;19.49;-2.29;0.11
14.59;0.22;-1.31;21.02;-0.76;1.74
4.14;-0.54;5.99;18.62;-0.76;19.38
3.27;5.12;-1.31;6.53;3.27;12.20
2.50;4.25;0.33;0.98;-2.29;3.27
-5.55;-22.32;0.33;-11.11;-6.32;4.14
-16.88;-2.18;0.33;-11.11;6.53;7.30
-26.46;4.25;-1.31;-15.14;2.50;12.96
3.27;5.12;0.33;-12.74;0.87;19.38
-2.29;5.88;1.96;11.43;-3.92;16.23
2.50;0.22;3.48;-4.68;-3.92;4.90
2.50;-0.54;-1.31;-3.05;-2.29;4.14
-6.32;-3.81;-1.31;-2.29;-11.98;-2.29
-17.64;-16.66;-1.31;-7.08;-7.19;-1.52
1.74;-4.57;0.33;2.50;-7.19;-10.35
-0.76;0.22;-3.70;-2.29;-10.35;-3.92
4.14;3.48;-1.31;0.11;-4.79;-9.58
-0.76;-1.31;0.33;-9.58;-2.29;-7.19
2.50;-0.54;-1.31;2.50;0.87;-9.58
4.90;-21.45;-0.54;5.77;4.90;7.30
3.27;20.36;-1.31;0.11;-3.92;-7.95
0.11;-3.81;-0.54;6.53;-0.76;-2.29
2.50;-0.54;5.12;3.38;-2.29;-6.32
-21.67;-7.84;-1.31;3.38;0.87;-5.55
0.87;2.72;-1.31;1.74;14.59;-6.32
-1.52;1.09;0.33;9.80;20.26;0.11
-0.76;2.72;2.72;5.77;17.86;2.50
2.50;5.12;-1.31;0.11;12.96;5.77
1.74;-5.34;1.96;1.74;4.14;9.80
3.27;-2.18;1.09;-1.52;18.62;8.93
2.50;-2.18;1.09;3.38;-2.29;0.87
-6.32;-6.97;-1.31;-2.29;-8.82;8.93
1.74;4.25;-1.31;-3.05;-10.35;1.74
4.90;-2.18;0.33;-3.92;-20.04;1.74
4.90;-6.97;1.09;-2.29;-15.25;1.74
3.27;-2.18;-1.31;1.74;-10.35;-9.58
-1.52;-2.18;-1.31;-20.04;-2.29;-11.98
-2.29;-6.97;-0.54;2.50;16.23;-11.22
3.27;-0.54;-3.70;2.50;22.65;-7.19
-3.92;-3.81;-1.31;3.38;21.89;-5.55
1.74;-2.18;-1.31;13.83;17.86;-4.79
12.20;2.72;20.47;2.50;13.83;-7.19
-1.52;-0.54;0.33;2.50;8.93;-10.35
-0.76;-2.94;-1.31;16.23;-6.32;-3.16
10.56;-2.18;-1.31;2.50;-20.04;7.30
6.53;3.48;-0.54;13.07;-29.73;8.93
3.27;-6.21;-6.97;10.56;-22.43;5.77
3.27;-3.81;-1.31;1.74;-20.04;0.11
0.87;1.09;13.94;-3.92;1.74;2.50
-0.76;-3.81;1.09;-10.35;3.27;5.77
-3.92;1.09;2.72;-13.61;10.56;2.50
-2.29;-4.57;3.48;-15.14;12.96;7.30
-3.92;-22.32;-1.31;-13.61;7.30;4.14
-4.79;-3.81;-1.31;10.56;28.31;2.50
-3.92;-2.18;0.33;-3.92;4.14;0.11
-3.92;14.70;-5.34;2.50;3.27;-1.52
1.74;4.25;-3.70;5.77;-0.76;4.14
2.50;-2.18;-2.94;6.53;-6.32;15.35
-0.76;-2.94;-1.31;7.41;-7.19;-7.19
-5.55;1.85;-2.07;5.77;-8.82;-3.92
3.27;1.09;-2.07;5.01;-5.55;-0.76
3.27;0.22;-1.31;-0.65;2.50;1.74
3.27;1.09;1.96;-3.05;5.77;-2.29
2.50;-3.81;-1.31;-3.05;7.30;-0.76
3.27;3.48;-1.31;31.58;9.80;-11.98
3.27;-0.54;2.72;-7.08;8.93;-19.28
3.27;0.22;-2.07;3.38;6.53;-12.85
-1.52;1.09;-2.07;5.01;17.86;-0.76
-7.19;1.09;2.72;-0.65;0.11;10.56
-22.43;-2.94;-0.54;3.38;-4.79;9.80
-7.19;0.22;-0.54;2.50;-16.88;18.62
1.74;-2.18;1.96;-2.29;-10.35;16.99
-1.52;2.72;-0.54;33.98;5.77;10.56
0.87;-2.18;-1.31;1.74;-9.58;-3.16
-7.19;4.25;-1.31;1.74;0.87;-9.58
2.50;2.72;1.09;1.74;13.83;0.87
-16.88;0.22;-0.54;-3.05;2.50;-3.16
-0.76;-7.84;7.51;-4.68;3.27;12.96
28.31;0.22;-1.31;-4.68;5.77;-2.29
-5.55;-7.84;-5.34;-5.55;14.59;-6.32
4.90;-0.54;-2.07;-3.05;18.62;3.27
4.14;1.09;-1.31;-3.92;19.38;17.86
4.14;2.72;-1.31;0.11;8.93;-11.22
1.74;-2.94;1.09;6.53;-6.32;14.59
1.74;0.22;0.33;28.31;-8.82;4.14
2.50;-2.94;1.09;3.38;-20.91;-3.92
-1.52;-8.60;-1.31;-1.52;-15.25;-10.35
17.86;-0.54;-0.54;-3.05;-37.79;8.93
21.02;0.22;13.18;-6.32;-32.13;-11.98
-0.76;-0.54;-1.31;-4.68;-24.94;-9.58
-1.52;-3.81;-1.31;-3.05;0.87;-10.35
-7.95;-2.18;-1.31;-4.68;4.90;0.87
-8.82;5.12;-1.31;-6.32;10.56;-2.29
-5.55;-2.94;-1.31;-0.65;20.26;1.74
2.50;5.12;-1.31;1.74;16.99;4.14
1.74;3.48;4.36;5.77;14.59;12.20
-1.52;5.12;10.78;8.17;15.35;1.74
1.74;-2.18;-1.31;5.01;12.20;1.74
3.27;4.25;-1.31;9.04;5.77;0.11
-1.52;2.72;-0.54;21.89;4.90;-3.16
0.11;5.12;-0.54;10.56;4.90;-2.29
3.27;-2.94;-0.54;2.50;4.90;-5.55
3.27;0.22;-0.54;-3.92;-20.91;1.74
29.08;4.25;-15.03;-7.95;-2.29;4.14
3.27;1.09;0.33;-13.61;0.11;1.74
3.27;-1.31;-1.31;-4.68;-0.76;1.74
2.50;-3.81;-2.07;2.50;4.14;-3.16
6.53;4.25;2.72;-17.64;4.14;1.74
1.74;-3.81;1.09;-2.29;4.14;22.65
-0.76;-0.54;-1.31;-1.52;4.90;0.87
-0.76;0.22;1.09;-1.52;8.17;-3.16
-5.55;-1.31;2.72;-0.65;13.83;-5.55
0.87;-0.54;-0.54;3.38;3.27;0.87
-17.64;0.22;-1.31;-1.52;-7.95;1.74
-0.76;1.85;-1.31;-3.05;-16.01;7.30
0.87;-5.34;-1.31;-2.29;-20.91;3.27
4.90;0.22;-6.97;5.01;-19.28;-11.98
12.20;5.12;-1.31;0.11;-21.67;0.11
5.77;4.25;-3.70;-2.29;-16.01;-3.16
-0.76;4.25;-1.31;5.77;-5.55;1.74
-5.55;-5.34;-0.54;9.80;-13.61;8.17
-13.61;-3.81;0.33;-2.29;19.38;0.87
-7.95;1.09;-2.07;3.38;4.90;-23.30
-7.19;-4.57;-1.31;9.80;13.83;1.74
-13.61;2.72;-1.31;10.56;10.56;7.30
-5.55;2.72;-0.54;1.74;6.53;0.87
2.50;4.25;3.48;1.74;4.90;2.50
-13.61;1.85;-0.54;1.74;3.27;-5.55
3.27;-4.57;1.09;3.38;10.56;-3.92
-0.76;1.09;17.21;2.50;8.93;-24.07
-5.55;-1.31;-0.54;3.38;3.27;-28.10
-3.16;-2.18;0.33;-2.29;-3.92;-15.25
-0.76;3.48;2.72;-4.68;4.90;1.74
-2.29;-2.94;-0.54;-15.14;4.14;7.30
-8.82;-20.69;-1.31;-11.11;0.87;13.83
1.74;-20.69;-4.57;-13.61;-3.92;15.35
3.27;-3.81;-2.94;11.43;-8.82;6.53
4.90;3.48;-1.31;9.04;-5.55;13.83
7.30;1.09;-1.31;-20.80;7.30;21.89
3.27;1.85;1.09;-6.32;0.11;20.26
-10.35;-8.60;-2.07;-1.52;-0.76;28.31
0.87;-10.24;-0.54;1.74;-10.35;8.93
-3.92;-3.81;1.09;5.77;-11.98;-12.85
4.90;-3.81;-0.54;-2.29;-15.25;-20.91
7.30;4.25;-0.54;9.04;-5.55;-11.98
0.87;3.48;0.33;3.38;4.14;-6.32
3.27;-2.18;-9.37;10.56;4.90;-11.98
-0.76;2.72;-1.31;9.04;13.83;0.87
0.87;-5.34;-1.31;9.04;16.99;4.90
8.93;25.26;1.09;0.11;28.31;1.74
-19.28;-31.15;1.96;26.68;14.59;-2.29
-8.82;1.09;1.09;-3.05;4.90;-0.76
-13.61;-10.24;0.33;22.65;4.90;0.11
-8.82;6.64;3.48;-16.01;-15.25;-7.19
-3.92;-2.94;-19.82;-3.92;-22.43;-2.29
3.27;5.12;-0.54;-2.29;-20.91;5.77
-2.29;1.09;-1.31;-1.52;-19.28;6.53
-5.55;0.22;-1.31;-7.95;-22.43;0.87
-0.76;-0.54;-5.34;-8.71;-18.40;-3.92
-0.76;-1.31;1.09;10.56;-3.16;1.74
2.50;-0.54;-1.31;10.56;4.90;0.11
3.27;1.85;0.33;3.38;4.90;1.74
3.27;-3.81;-1.31;-15.14;17.86;9.80
3.27;-2.94;-1.31;-6.32;17.86;6.53
8.93;-2.18;-2.94;-12.74;12.20;35.50
5.77;-2.18;-2.94;-12.74;12.20;1.74
2.50;-3.81;-1.31;-10.35;8.17;-3.92
-23.30;4.25;-1.31;-3.92;7.30;0.87
-2.29;3.48;-1.31;-2.29;30.71;0.11
-5.55;2.72;-1.31;-1.52;2.50;-7.19
-19.28;9.15;1.09;3.38;-15.25;-7.19
-36.92;2.72;-1.31;6.53;0.87;-3.92
-7.95;-2.18;-0.54;3.38;1.74;0.87
-1.52;1.09;-1.31;28.31;-7.19;5.77
3.27;10.67;-1.31;10.56;7.30;1.74
15.35;1.85;0.33;1.74;-2.29;-1.52
6.53;4.25;-1.31;5.77;-3.16;-3.92
3.27;-4.57;-15.79;-2.29;4.90;-1.52
1.74;-3.81;-1.31;-3.05;-7.19;-5.55
0.11;2.72;-1.31;-3.92;-7.19;17.86
3.27;-0.54;-1.31;-7.08;-30.49;2.50
3.27;-2.94;-1.31;-3.92;-19.28;1.74
8.93;2.72;2.72;-9.58;-20.04;1.74
4.90;9.91;-1.31;-3.05;-18.40;-6.32
3.27;-2.18;-2.94;-16.77;-20.91;-8.82
0.87;-2.18;-1.31;3.38;-41.82;-11.98
-5.55;-3.81;0.33;1.74;-7.19;14.59
-3.92;1.09;-1.31;-0.65;4.90;-0.76
-3.92;1.09;-2.07;3.38;18.62;5.77
-2.29;0.22;15.57;5.01;28.31;16.99
0.11;1.85;-1.31;5.01;31.47;11.33
-0.76;-2.18;1.09;0.11;30.71;12.20
1.74;1.09;1.09;0.98;28.31;14.59
2.50;-6.21;-1.31;10.56;9.80;16.99
-1.52;-2.94;-0.54;30.71;0.87;7.30
-5.55;7.51;-1.31;1.74;-5.55;-15.25
-8.82;-0.54;-3.70;30.71;-19.28;-15.25
-1.52;-3.81;-1.31;-3.05;-28.86;7.30
5.77;2.72;3.48;-9.58;-30.49;0.87
4.90;0.22;-1.31;-35.28;-24.94;-0.76
8.93;-7.84;-1.31;-26.46;-16.01;-3.16
0.87;1.09;-1.31;-14.37;2.50;-11.22
8.17;2.72;-1.31;-0.65;14.59;-7.19
8.93;2.72;-1.31;0.11;9.80;-3.16
3.27;0.22;-1.31;1.74;3.27;-1.52
-3.92;2.72;0.33;5.01;6.53;-0.76
-14.37;-1.31;3.48;5.01;4.90;1.74
-7.19;-14.27;-1.31;9.80;3.27;5.77
3.27;1.09;0.33;11.43;3.27;6.53
-25.70;2.72;4.36;9.04;16.99;1.74
1.74;-0.54;1.09;9.04;8.93;0.87
-4.79;-2.18;2.72;0.11;5.77;-0.76
0.11;1.09;-0.54;-4.68;2.50;-2.29
1.74;1.85;-1.31;-7.08;0.11;0.87
-5.55;-3.81;-1.31;5.77;-8.82;-2.29
-28.10;4.25;1.09;-6.32;-3.92;-0.76
3.27;4.25;-5.34;-5.55;-3.92;2.50
14.59;34.85;-1.31;-3.05;-0.76;12.20
0.87;-2.94;-3.70;2.50;-0.76;1.74
2.50;-2.18;-1.31;-3.05;1.74;2.50
3.27;1.09;-2.07;21.02;8.17;1.74
3.27;5.12;-1.31;24.28;12.20;0.87
0.87;-6.97;-0.54;9.04;18.62;2.50
0.87;3.48;-0.54;4.14;21.89;10.56
1.74;2.72;-4.57;9.80;28.31;1.74
4.14;1.09;1.96;5.01;25.05;5.77
-1.52;-9.37;1.96;5.77;6.53;0.87
-4.79;3.48;-5.34;-2.29;-16.01;-5.55
-3.92;-0.54;-1.31;0.11;-36.15;-7.95
0.87;-28.75;4.36;-2.29;-35.39;-9.58
-3.92;-2.94;-1.31;-6.32;-36.92;-2.29
5.77;-0.54;11.54;-12.74;-44.21;-28.10
-10.35;-2.94;-1.31;-13.61;-32.89;-0.76
2.50;-2.94;-1.31;-9.58;-9.58;-9.58
2.50;0.22;-27.12;-11.11;-6.32;-12.85
25.05;0.22;10.78;-5.55;7.30;9.80
-5.55;2.72;-2.07;-3.05;17.86;-5.55
-2.29;-0.54;-3.70;0.11;19.38;-25.70
4.14;2.72;-1.31;-0.65;22.65;1.74
7.30;-3.81;-10.13;-2.29;12.96;-3.92
-18.40;-2.94;-1.31;0.11;16.23;1.74
-0.76;-20.69;-1.31;5.77;9.80;1.74
-7.19;-2.18;-5.34;7.41;4.90;11.33
3.27;0.22;-0.54;10.56;2.50;5.77
8.17;-0.54;-0.54;5.01;-7.19;4.14
7.30;-2.94;-1.31;3.38;-4.79;1.74
3.27;-2.18;-1.31;0.98;-29.73;1.74
1.74;4.25;0.33;16.23;0.11;1.74
-2.29;2.72;0.33;16.23;4.90;32.34
-8.82;-3.81;-1.31;9.04;12.96;0.87
-11.98;1.85;13.18;-1.52;16.99;6.53
1.74;1.09;1.09;-5.55;12.96;12.20
5.77;3.48;-0.54;-15.14;2.50;2.50
0.87;-0.54;0.33;-16.01;0.11;1.74
1.74;-1.31;-18.19;-13.61;-5.55;20.26
-3.92;0.22;-2.07;-7.08;-6.32;-9.58
33.11;-3.81;-0.54;-11.11;-18.40;-2.29
-0.76;2.72;-3.70;-1.52;-13.61;1.74
-3.92;-2.94;4.36;1.74;-20.04;1.74
1.74;3.48;-2.94;3.38;-11.98;-4.79
-21.67;-3.81;-1.31;8.17;-5.55;-13.61
2.50;-22.32;1.09;8.17;0.87;-14.37
-11.98;5.12;-1.31;0.11;4.90;0.11
19.38;-4.57;-2.94;-1.52;19.38;-1.52
-3.92;-3.81;-1.31;2.50;12.96;1.74
-22.43;-11.87;-1.31;2.50;13.83;2.50
7.30;1.09;3.48;0.98;7.30;6.53
8.17;2.72;2.72;5.77;2.50;3.27
2.50;-28.75;2.72;36.37;-6.32;0.87
-2.29;2.72;-0.54;0.11;-15.25;4.14
5.77;-8.60;-0.54;-0.65;-20.04;-7.95
11.33;-2.94;3.48;-3.92;-20.04;-5.55
2.50;-3.81;10.78;0.11;-10.35;2.50
-5.55;29.29;-1.31;-3.05;-6.32;3.27
-0.76;-7.84;-8.60;-3.05;3.27;15.35
0.87;-5.34;1.09;-3.05;8.93;-5.55
-15.25;9.91;-1.31;2.50;16.99;-8.82
1.74;2.72;-0.54;-12.74;12.20;-7.95
4.14;16.33;-1.31;1.74;6.53;-4.79
3.27;1.09;5.99;-0.65;4.90;-2.29
-0.76;-2.18;1.09;-2.29;4.90;3.27
-0.76;-3.81;-1.31;3.38;13.83;2.50
2.50;3.48;1.09;8.17;16.99;4.14
1.74;0.22;4.36;9.80;7.30;6.53
3.27;2.72;1.96;5.01;-3.92;22.65
-3.92;1.09;-1.31;8.17;-13.61;-1.52
1.74;0.22;0.33;14.59;-13.61;-3.16
-4.79;0.22;-1.31;9.80;-9.58;-28.10
3.27;-20.69;-1.31;0.11;-8.82;0.87
0.11;-6.21;0.33;-11.98;-4.79;-38.55
0.87;-6.21;1.09;-14.37;-7.19;6.53
3.27;-7.84;-1.31;-18.40;-7.95;2.50
0.87;-0.54;-1.31;-17.64;0.11;-2.29
3.27;-3.81;0.33;-11.98;4.90;1.74
-3.92;-6.21;-1.31;-5.55;8.17;1.74
29.08;5.88;-10.13;-2.29;4.90;4.14
4.14;2.72;-6.10;-0.65;0.87;1.74
14.59;-2.18;-1.31;6.53;2.50;-1.52
3.27;1.09;-2.94;12.20;5.77;-5.55
8.17;-2.94;-3.70;9.80;7.30;-3.92
0.87;-2.94;-1.31;8.17;16.99;1.74
3.27;2.72;-2.07;5.77;10.56;-0.76
-2.29;3.48;-0.54;10.56;7.30;3.27
-5.55;-0.54;-1.31;11.43;2.50;1.74
-9.58;1.09;2.72;5.01;-2.29;1.74
-1.52;2.72;9.15;0.98;-11.22;31.47
2.50;4.25;1.09;-3.05;-16.88;-7.19
3.27;1.85;2.72;-11.11;-20.91;0.11
0.87;4.25;1.09;-11.98;-16.01;-3.92
8.17;2.72;1.96;-36.15;-18.40;0.11
-0.76;-1.31;17.21;-7.95;-7.95;20.26
-1.52;-3.81;17.21;-4.68;-2.29;-6.32
-0.76;1.85;-0.54;14.59;3.27;-6.32
-0.76;-3.81;-2.94;-5.55;8.93;-13.61
-4.79;-3.81;-1.31;-2.29;8.93;-1.52
2.50;1.09;-1.31;1.74;16.99;2.50
1.74;-3.81;1.96;10.56;7.30;12.96
0.87;-0.54;-2.07;10.56;6.53;15.35
3.27;-2.94;-1.31;6.53;7.30;11.33
3.27;1.09;0.33;3.38;4.14;9.80
3.27;3.48;1.09;0.11;0.87;2.50
3.27;-2.18;0.33;2.50;-0.76;-2.29
3.27;3.48;-1.31;-0.65;3.27;1.74
1.74;-3.81;-13.39;3.38;8.93;19.38
-1.52;0.22;0.33;1.74;8.93;1.74
-2.29;19.60;0.33;5.77;4.90;2.50
0.11;-1.31;-1.31;3.38;13.83;0.87
3.27;-2.18;-1.31;6.53;14.59;0.87
-8.82;-20.69;-0.54;1.74;9.80;2.50
7.30;31.69;-0.54;10.56;-6.32;8.93
4.90;2.72;3.48;-2.29;-3.92;0.11
3.27;-3.81;1.09;-4.68;-16.01;0.11
-7.19;-7.84;3.48;-22.43;-8.82;-15.25
-6.32;0.22;-0.54;-2.29;4.90;-16.88
-10.35;-2.18;-0.54;-14.37;-5.55;-14.37
-15.25;-2.94;-2.94;-7.95;-20.91;-9.58
3.27;-5.34;12.41;-4.68;-16.88;-8.82
-0.76;-7.84;-6.10;-6.32;-24.07;-10.35
1.74;-2.18;-1.31;-3.05;-23.30;7.30
3.27;1.09;-2.07;3.38;-21.67;18.62
10.56;-1.31;-2.07;-1.52;-28.86;16.99
-9.58;-25.48;-1.31;1.74;-21.67;25.05
3.27;-2.18;-6.97;10.56;-19.28;19.38
3.27;-3.81;-1.31;5.01;-5.55;16.99
15.35;2.72;1.09;-2.29;13.83;26.68
3.27;-0.54;1.96;27.55;26.68;3.27
1.74;-25.48;0.33;-2.29;32.34;2.50
3.27;1.85;2.72;1.74;29.95;-5.55
3.27;1.09;1.09;7.41;19.38;-11.98
-0.76;2.72;4.36;-9.58;12.96;-12.85
-3.16;-4.57;2.72;5.01;12.96;-16.88
-2.29;-2.18;-1.31;15.46;4.90;-7.95
3.27;0.22;0.33;8.17;0.11;-2.29
20.26;2.72;-0.54;5.01;-2.29;-2.29
1.74;-2.18;-1.31;-7.95;-3.92;-5.55
-0.76;0.22;-1.31;-15.14;-3.16;-3.16
-6.32;-4.57;-2.07;-14.37;-3.92;-11.98
-1.52;-3.81;-2.07;-14.37;6.53;-11.22
-3.92;3.48;-1.31;-9.58;17.86;-11.22
3.27;3.48;-2.94;16.23;5.77;-5.55
10.56;30.06;0.33;10.56;-11.98;-3.16
3.27;-1.31;24.50;5.77;-6.32;-3.16
12.20;0.22;1.09;7.41;-3.92;1.74
-5.55;3.48;-2.07;12.20;0.11;0.11
-5.55;-5.34;-1.31;11.43;-11.22;6.53
3.27;3.48;1.09;2.50;-20.91;0.87
3.27;0.22;-1.31;-4.68;-25.70;2.50
-2.29;30.06;-1.31;-9.58;-23.30;-5.55
-5.55;13.94;-2.07;-33.76;-20.91;-3.16
-7.19;-3.81;1.09;-3.05;-8.82;1.74
-18.40;2.72;0.33;2.50;4.90;2.50
-7.95;-2.94;-1.31;0.11;4.90;3.27
-2.29;-5.34;-1.31;19.49;1.74;1.74
8.93;-0.54;1.09;-2.29;7.30;8.93
7.30;1.09;-0.54;-9.58;21.89;8.93
-2.29;-2.18;-1.31;21.89;13.83;1.74
-1.52;2.72;-1.31;-9.58;12.96;1.74
3.27;-28.75;-1.31;-0.65;4.90;0.11
4.90;1.09;-1.31;3.38;0.87;1.74
3.27;5.12;-2.07;10.56;1.74;3.27
1.74;2.72;-1.31;10.56;-3.92;-2.29
10.56;1.09;-1.31;6.53;-20.04;-8.82
1.74;-2.18;-1.31;9.04;-2.29;-7.19
-5.55;-2.18;1.96;5.77;-9.58;-2.29
3.27;-3.81;-1.31;10.56;1.74;1.74
3.27;2.72;0.33;-2.29;-4.79;1.74
3.27;5.12;2.72;5.77;-11.22;6.53
3.27;1.09;27.66;8.17;-2.29;1.74
-34.52;0.22;1.09;0.11;-3.92;-3.92
2.50;-5.34;-0.54;-1.52;-9.58;-11.22
1.74;-23.96;1.96;-6.32;-3.92;-8.82
-0.76;1.85;-0.54;-0.65;4.14;-9.58
-2.29;-3.81;-0.54;29.95;4.14;-8.82
1.74;-2.18;-1.31;-28.10;2.50;-11.98
-3.92;-2.18;-1.31;-7.08;4.90;-8.82
27.44;1.09;1.09;2.50;4.14;1.74
3.27;-0.54;-1.31;0.98;0.87;1.74
-1.52;0.22;-1.31;8.17;4.14;0.11
-24.94;-10.24;-1.31;5.01;0.87;1.74
-5.55;-2.18;-1.31;2.50;3.27;-3.16
-3.92;0.22;-2.07;13.83;1.74;4.14
3.27;-2.94;-8.60;-1.52;-3.16;10.56
2.50;0.22;-1.31;-4.68;-6.32;15.35
3.27;5.88;-1.31;-20.80;5.77;20.26
4.90;13.18;-1.31;0.98;9.80;18.62
4.14;1.09;9.15;7.41;18.62;12.96
1.74;-6.21;-1.31;6.53;12.20;9.80
-1.52;-2.18;2.72;2.50;-7.95;8.93
-11.22;-3.81;1.09;1.74;-9.58;14.59
-10.35;-2.94;-9.37;-3.05;-16.01;14.59
0.87;-7.84;1.09;3.38;-16.88;9.80
-7.95;14.70;-1.31;28.31;-23.30;2.50
-10.35;-5.34;6.75;-0.65;-20.91;-3.16
-0.76;0.22;3.48;-0.65;-9.58;-10.35
3.27;1.85;-1.31;-1.52;-0.76;-37.79
1.74;-23.09;1.09;9.04;4.90;-11.22
8.93;3.48;-2.94;-1.52;5.77;-13.61
-3.92;-0.54;-2.07;-2.29;6.53;-24.07
3.27;-2.94;-1.31;1.74;6.53;-12.85
3.27;-0.54;-1.31;0.98;2.50;-14.37
3.27;2.72;-1.31;3.38;-0.76;-8.82
3.27;-2.94;-1.31;-2.29;-5.55;12.96
4.90;19.60;-1.31;0.98;-7.19;1.74
5.77;-7.84;-1.31;-3.92;-7.95;0.87
6.53;-2.18;-1.31;-3.05;5.77;5.77
5.77;-2.18;-1.31;28.31;4.90;15.35
4.90;1.09;-0.54;19.49;-3.92;12.20
4.90;-0.54;0.33;-3.92;-5.55;3.27
-2.29;-0.54;3.48;-1.52;-11.22;12.20
2.50;1.09;-1.31;-2.29;2.50;-6.32
-1.52;-2.94;18.84;-4.68;0.11;7.30
-4.79;-29.51;1.09;35.61;4.90;-0.76
-7.19;-5.34;-0.54;-0.65;4.90;-12.85
-23.30;2.72;1.09;-3.92;-5.55;-18.40
-5.55;0.22;0.33;0.11;10.56;-16.88
-4.79;3.48;-1.31;-1.52;16.99;-10.35
2.50;-0.54;-1.31;0.11;13.83;-6.32
8.17;5.12;-2.07;-3.05;10.56;1.74
3.27;3.48;-1.31;6.53;5.77;4.14
3.27;-2.94;14.81;5.77;4.90;9.80
2.50;0.22;0.33;7.41;4.90;19.38
3.27;-0.54;-0.54;9.80;10.56;23.41
2.50;-5.34;-1.31;12.20;0.87;16.99
1.74;3.48;1.09;2.50;3.27;15.35
3.27;-9.37;-1.31;1.74;4.14;7.30
3.27;-0.54;-1.31;2.50;4.90;-10.35
-11.22;-2.18;0.33;-0.65;-3.16;-10.35
-0.76;2.72;-3.70;-3.05;-23.30;-11.22
-1.52;-3.81;-1.31;-3.92;-44.21;-11.22
0.11;0.22;-1.31;1.74;-24.94;-10.35
-1.52;-3.81;1.96;-7.08;-24.07;-7.95
-3.92;-2.94;2.72;-7.95;-20.91;-11.22
-2.29;9.91;-0.54;-4.68;-10.35;-12.85
-11.98;1.09;-2.07;-2.29;-13.61;-9.58
-7.19;-2.18;-1.31;-1.52;-3.92;-5.55
3.27;5.12;0.33;37.13;3.27;-2.29
7.30;3.48;-2.94;9.80;5.77;0.87
7.30;1.09;-4.57;3.38;13.83;-3.92
-1.52;0.22;-1.31;-0.65;21.02;10.56
-5.55;-23.96;-3.70;-1.52;26.68;16.23
-0.76;-2.94;-1.31;9.04;45.19;21.02
4.90;2.72;-1.31;9.04;30.71;14.59
2.50;2.72;-1.31;1.74;30.71;1.74
4.90;0.22;0.33;-3.92;18.62;1.74
12.20;1.09;1.09;-3.05;4.14;-8.82
3.27;-2.18;-1.31;-30.49;-7.95;0.87
3.27;2.72;-1.31;-13.61;-20.91;-0.76
-1.52;9.15;1.96;-7.95;-31.36;0.87
-35.39;0.22;-1.31;-0.65;-33.76;-7.95
-12.85;0.22;-1.31;9.04;-35.39;-21.67
-7.19;-0.54;-22.22;-0.65;-28.86;-24.07
-10.35;3.48;-1.31;-0.65;-20.04;-11.98
-35.39;-3.81;-1.31;6.53;2.50;-3.92
-2.29;-0.54;-2.07;8.17;15.35;6.53
-2.29;-2.18;0.33;9.04;14.59;12.96
-0.76;-2.94;-1.31;3.38;12.20;3.27
12.96;29.29;0.33;1.74;4.90;-1.52
8.17;2.72;-3.70;0.11;4.14;9.80
3.27;2.72;-5.34;12.20;-8.82;23.41
0.87;-6.97;-1.31;-2.29;4.90;12.96
0.87;2.72;-1.31;-2.29;16.23;8.93
-2.29;-0.54;-0.54;3.38;3.27;5.77
-1.52;1.85;4.36;-1.52;-0.76;9.80
-3.92;2.72;2.72;3.38;8.93;4.90
-22.43;4.25;1.09;6.53;-0.76;0.11
-8.82;-0.54;-1.31;7.41;7.30;-11.22
-1.52;-6.21;-1.31;3.38;8.93;-10.35
-0.76;4.25;-2.07;0.11;4.90;-3.92
3.27;4.25;0.33;1.74;9.80;-3.16
1.74;2.72;0.33;-1.52;5.77;-7.19
3.27;-5.34;0.33;-1.52;20.26;-7.19
2.50;-2.18;-0.54;1.74;4.90;-3.92
7.30;2.72;15.57;8.17;1.74;0.11
3.27;1.85;1.96;0.11;-0.76;1.74
4.90;1.09;-1.31;-1.52;-3.16;-2.29
-2.29;-3.81;13.18;-7.95;-15.25;-6.32
0.87;-2.94;-1.31;-38.55;-11.98;-5.55
4.90;1.85;9.15;-6.32;-7.95;22.65
3.27;3.48;-2.07;-6.32;-3.92;-9.58
-1.52;-1.31;-0.54;-7.08;4.90;1.74
-2.29;0.22;-2.07;-20.04;12.96;8.93
12.96;-3.81;-0.54;5.77;6.53;9.80
1.74;-0.54;19.60;-0.65;-6.32;7.30
-3.92;1.85;-1.31;0.11;-9.58;2.50
5.77;1.09;0.33;-4.68;0.11;4.90
-7.19;-2.18;-2.07;-2.29;-20.91;-7.19
2.50;-2.18;-17.42;-2.29;-26.46;-26.46
3.27;4.25;0.33;-2.29;-18.40;0.87
3.27;5.12;23.63;-3.05;0.11;0.87
2.50;1.09;-1.31;-3.05;5.77;-2.29
3.27;0.22;-1.31;-1.52;4.90;-8.82
3.27;1.09;0.33;-3.05;10.56;12.96
3.27;2.72;-0.54;-3.05;8.93;-2.29
-2.29;1.09;-0.54;0.11;10.56;-6.32
-2.29;1.85;-0.54;-2.29;15.35;-2.29
-2.29;-2.18;-1.31;-3.05;5.77;-3.92
-29.73;4.25;-1.31;0.98;3.27;-0.76
2.50;2.72;-0.54;1.74;-2.29;3.27
3.27;31.69;-0.54;5.77;5.77;1.74
2.50;0.22;0.33;6.53;0.11;1.74
3.27;0.22;-0.54;6.53;6.53;-0.76
1.74;-5.34;0.33;6.53;3.27;-0.76
2.50;1.09;-1.31;5.01;-28.10;0.87
2.50;3.48;26.03;5.01;-2.29;9.80
4.90;1.85;1.09;3.38;0.87;-2.29
12.20;-2.18;-8.60;9.04;5.77;1.74
-1.52;0.22;1.96;5.77;21.89;-5.55
-2.29;-5.34;1.96;9.04;28.31;-2.29
-3.92;-2.94;-1.31;17.86;12.96;-7.19
-11.22;-2.94;0.33;-20.80;10.56;4.14
2.50;0.22;2.72;-1.52;-0.76;17.86
3.27;1.09;1.96;-2.29;-10.35;40.40
2.50;-29.51;2.72;-28.86;-3.92;19.38
3.27;-3.81;-4.57;-2.29;-36.15;15.35
0.87;0.22;2.72;-6.32;-58.70;4.14
-1.52;-2.94;-10.13;-7.95;-20.91;-11.22
-2.29;1.09;0.33;-6.32;-5.55;-8.82
-1.52;5.12;-1.31;-3.05;6.53;7.30
-4.79;1.09;-1.31;-3.92;9.80;10.56
2.50;-2.94;-0.54;-3.05;8.93;-11.22
3.27;2.72;0.33;-0.65;4.90;-7.19
2.50;-2.94;-1.31;10.56;-3.92;-26.46
0.87;-0.54;-1.31;35.61;-3.16;-0.76
3.27;-2.94;-0.54;11.43;-12.85;5.77
-0.76;5.12;-1.31;2.50;-18.40;-5.55
0.87;0.22;-0.54;-7.08;-16.01;0.11
-0.76;5.12;3.48;-14.37;0.11;3.27
-3.92;5.12;1.09;1.74;4.90;4.90
-13.61;-3.81;-2.07;-12.74;1.74;-3.16
-3.92;-2.94;1.09;-11.11;4.90;-3.16
-2.29;-6.21;-1.31;-2.29;10.56;0.87
-3.92;-2.94;1.09;10.56;17.86;-2.29
0.87;1.09;1.96;18.62;24.28;-0.76
-11.22;-7.84;-3.70;25.92;25.92;-3.16
-1.52;1.85;-2.07;24.28;28.31;-6.32
4.90;-15.03;-0.54;13.07;29.08;2.50
3.27;0.22;-1.31;-1.52;19.38;1.74
3.27;-2.18;-1.31;-13.61;15.35;1.74
1.74;-26.35;-0.54;-3.05;13.83;-5.55
1.74;-2.18;3.48;-15.14;4.90;-5.55
2.50;3.48;-1.31;-11.11;-7.19;-0.76
4.90;-2.18;-0.54;-20.04;-22.43;5.77
2.50;0.22;-0.54;-6.32;-39.42;3.27
2.50;-2.18;-15.03;0.11;-52.27;10.56
0.87;0.22;1.09;3.38;-51.51;3.27
-0.76;2.72;0.33;0.11;-52.27;1.74
18.62;-2.18;-1.31;5.01;-25.70;-11.22
-1.52;-2.18;3.48;1.74;-3.16;-6.32
-1.52;-8.60;-1.31;0.11;13.83;0.11
0.87;-5.34;0.33;-2.29;18.62;-10.35
-0.76;-2.94;4.36;-4.68;16.23;-11.98
3.27;-3.81;0.33;-4.68;19.38;0.87
-6.32;-1.31;0.33;-3.05;18.62;1.74
-5.55;-3.81;2.72;-0.65;15.35;1.74
-9.58;-3.81;-1.31;-3.92;4.14;0.87
-2.29;-7.84;-1.31;-3.05;4.90;1.74
2.50;-2.18;-2.07;-2.29;-20.91;1.74
12.20;4.25;13.18;-2.29;0.11;5.77
3.27;3.48;-1.31;-3.05;-0.76;4.14
14.59;4.25;-1.31;0.11;-6.32;1.74
4.14;1.09;-1.31;6.53;-0.76;2.50
32.34;-0.54;-0.54;-0.65;-2.29;-4.79
2.50;-2.94;1.09;6.53;-7.19;-7.19
26.68;-3.81;-1.31;6.53;-11.22;-8.82
-0.76;-10.24;4.36;1.74;-3.16;-0.76
0.87;-6.97;0.33;2.50;-4.79;-2.29
-28.10;-6.97;1.09;6.53;6.53;-7.19
2.50;-6.21;2.72;5.01;4.90;-0.76
-1.52;5.12;1.09;-0.65;4.90;3.27
4.90;1.09;4.36;5.77;6.53;12.96
5.77;1.85;3.48;8.17;4.90;8.93
20.26;2.72;6.75;9.04;4.14;6.53
1.74;1.09;3.48;3.38;5.77;-0.76
1.74;7.51;4.36;-35.28;4.90;-1.52
-0.76;-2.18;-1.31;-8.71;5.77;1.74
0.87;3.48;-0.54;-35.28;10.56;-3.16
1.74;0.22;-23.09;-12.74;21.89;-5.55
-1.52;1.09;-2.94;-10.35;9.80;0.11
1.74;5.12;-2.07;-9.58;8.93;-3.16
3.27;5.12;13.18;-0.65;4.90;13.83
5.77;-7.84;-1.31;-0.65;0.87;2.50
3.27;1.09;-2.07;9.04;-0.76;0.87
2.50;-2.18;-1.31;2.50;0.11;0.87
3.27;-9.37;-1.31;5.01;8.93;5.77
3.27;1.85;-9.37;9.80;4.90;12.96
4.90;1.09;1.96;-0.65;0.87;-16.01
-0.76;-2.94;0.33;0.11;-3.92;0.11
-10.35;22.00;-2.07;-37.79;-20.04;-2.29
-8.82;-5.34;-1.31;-9.58;-36.15;1.74
-1.52;18.73;-1.31;-7.95;-34.52;1.74
-3.92;-2.94;-1.31;-4.68;-40.95;0.87
3.27;-0.54;4.36;-3.05;-31.36;-11.98
3.27;-3.81;6.75;2.50;-20.91;-3.92
0.87;-3.81;1.09;5.77;-11.98;-11.22
-8.82;20.36;1.09;0.11;5.77;-25.70
3.27;-4.57;-1.31;1.74;21.02;-15.25
3.27;-2.94;-2.07;-3.05;23.41;-19.28
3.27;2.72;-1.31;-0.65;4.90;-1.52
3.27;-2.18;-1.31;-3.05;21.89;3.27
29.08;2.72;1.09;1.74;23.41;10.56
2.50;-0.54;-12.63;5.77;15.35;39.53
-11.98;-10.24;-0.54;-0.65;9.80;15.35
-2.29;1.85;-1.31;-3.05;4.90;12.20
-7.19;2.72;-3.70;-0.65;5.77;9.80
-3.92;0.22;-3.70;0.98;4.90;-5.55
3.27;-2.18;1.96;1.74;4.14;1.74
2.50;7.51;-0.54;24.28;0.87;5.77
3.27;-0.54;-2.07;-16.01;0.87;1.74
-3.92;-0.54;24.50;10.56;-2.29;0.87
0.87;1.09;-1.31;13.07;5.77;-7.19
-7.19;1.09;1.09;9.04;4.90;-3.16
8.93;2.72;4.36;3.38;3.27;-0.76
-1.52;2.72;-1.31;-1.52;7.30;-5.55
16.23;-4.57;0.33;5.77;6.53;-3.16
-3.92;-2.18;1.96;-22.43;12.96;0.11
-0.76;-6.21;-1.31;-6.32;-5.55;-3.92
2.50;1.85;-2.07;-13.61;-10.35;-16.01
1.74;-11.00;-2.07;-19.17;-15.25;-26.46
4.90;-13.39;-2.07;-2.29;-10.35;-6.32
3.27;3.48;-2.07;-22.43;-13.61;-33.76
3.27;4.25;-1.31;-3.92;-7.95;1.74
0.87;-1.31;-2.07;-3.92;-6.32;1.74
3.27;1.85;-2.94;3.38;-3.92;8.93
3.27;-2.18;-1.31;0.11;-7.19;5.77
3.27;-2.94;0.33;2.50;-9.58;4.14
-0.76;-4.57;-4.57;1.74;-2.29;4.14
-0.76;-2.18;-2.94;6.53;-16.88;3.27
-11.98;-3.81;-1.31;5.01;2.50;2.50
-2.29;-3.81;-1.31;5.01;7.30;0.11
4.14;2.72;-24.72;5.77;11.33;-3.92
0.87;0.22;17.21;6.53;16.99;1.74
-1.52;1.09;13.94;0.11;17.86;1.74
-0.76;5.12;1.09;-1.52;19.38;1.74
2.50;5.12;2.72;1.74;29.08;5.77
2.50;4.25;-1.31;1.74;21.02;1.74
0.11;-6.21;-1.31;-2.29;4.14;-0.76
1.74;-2.18;-5.34;-2.29;-7.19;-5.55
-5.55;-3.81;-2.94;-3.05;-11.98;-1.52
2.50;1.09;-2.94;0.11;-20.04;0.87
3.27;2.72;-1.31;-2.29;-21.67;1.74
-7.95;-2.18;-1.31;-3.05;-20.04;0.11
3.27;31.69;1.96;-0.65;-16.01;1.74
4.90;4.25;-0.54;5.77;-6.32;-2.29
-0.76;3.48;-1.31;-2.29;-5.55;-0.76
-2.29;-2.18;-2.07;0.11;-11.98;-7.19
0.87;1.09;2.72;0.98;-6.32;-11.22
-0.76;-2.94;4.36;-0.65;18.62;-7.95
-3.92;-3.81;3.48;-0.65;4.90;-3.16
1.74;-3.81;2.72;3.38;5.77;0.11
3.27;1.09;-19.06;0.11;20.26;1.74
14.59;-5.34;0.33;3.38;26.68;7.30
-1.52;2.72;0.33;3.38;28.31;13.83
3.27;-2.18;-2.94;0.11;30.71;16.99
-5.55;3.48;0.33;-3.05;20.26;13.83
-16.88;-11.87;-1.31;-3.92;4.90;4.14
-5.55;0.22;-2.94;-4.68;-8.82;1.74
-11.98;15.57;-1.31;25.92;-15.25;1.74
0.87;-11.87;-5.34;8.17;-11.98;-10.35
11.33;1.09;-2.07;-0.65;-8.82;1.74
5.77;-0.54;-0.54;9.80;-8.82;1.74
3.27;-5.34;-1.31;10.56;6.53;-11.98
4.14;0.22;-1.31;-0.65;-7.95;-11.98
0.87;-10.24;-2.94;32.34;-5.55;1.74
-3.92;1.09;1.96;-3.05;-3.16;1.74
12.20;1.09;-2.07;-1.52;-10.35;10.56
0.11;-1.31;-1.31;-2.29;-16.01;5.77
-5.55;-4.57;0.33;-7.08;-21.67;-11.98
3.27;-29.51;-1.31;-2.29;-17.64;-20.04
17.86;1.09;-0.54;-2.29;-6.32;-12.85
4.14;4.25;2.72;-15.14;0.87;-12.85
0.87;-3.81;1.09;-0.65;8.93;-5.55
2.50;-5.34;-0.54;-11.11;5.77;0.87
0.87;-2.94;1.09;-1.52;8.93;9.80
-17.64;-6.97;-1.31;-0.65;19.38;19.38
19.38;0.22;-1.31;-2.29;16.23;18.62
0.87;-3.81;1.09;-2.29;8.17;17.86
0.87;1.09;-3.70;-2.29;20.26;16.23
3.27;4.25;-1.31;-2.29;-3.16;4.14
-0.76;22.76;-1.31;-1.52;-10.35;-12.85
-7.95;-2.18;-4.57;-1.52;-18.40;-15.25
-7.95;-5.34;14.81;-0.65;-11.98;-7.19
-1.52;1.09;-2.94;2.50;0.11;-6.32
-1.52;5.12;-1.31;8.17;4.90;-0.76
-13.61;-2.18;10.02;2.50;4.90;-9.58
-4.79;1.09;-21.45;-0.65;17.86;-6.32
3.27;1.09;-1.31;0.11;4.90;-3.16
4.90;3.48;-1.31;2.50;4.14;0.87
9.80;0.22;0.33;9.80;4.90;3.27
2.50;1.85;-0.54;0.11;4.90;1.74
23.41;-2.18;-1.31;-2.29;12.96;0.11
-3.92;0.22;-16.66;9.80;12.96;-12.85
-3.92;-2.18;2.72;10.56;12.96;0.11
-0.76;-2.94;3.48;4.14;20.26;4.14
-4.79;-2.18;20.47;2.50;0.11;4.14
2.50;1.09;-1.31;-2.29;-0.76;-2.29
-1.52;2.72;-1.31;-2.29;-3.16;-3.92
1.74;2.72;-1.31;8.17;-2.29;2.50
8.93;4.25;-1.31;7.41;4.90;4.90
15.35;5.12;-2.07;-11.11;4.14;10.56
3.27;3.48;-1.31;-10.35;0.11;1.74
2.50;23.63;-3.70;-28.86;-5.55;1.74
3.27;2.72;-2.94;-12.74;-12.85;-2.29
18.62;0.22;-5.34;-1.52;-20.91;1.74
3.27;-2.18;-13.39;5.01;-17.64;2.50
3.27;-2.18;10.02;-2.29;-7.95;12.96
2.50;0.22;-0.54;-6.32;-7.19;-7.19
-6.32;-5.34;-1.31;-17.64;-5.55;-3.92
-7.95;1.09;-1.31;-6.32;4.90;-2.29
21.89;0.22;-3.70;-7.08;21.89;3.27
7.30;0.22;1.09;-6.32;21.02;5.77
1.74;-23.09;4.36;-3.05;0.11;1.74
-7.19;-4.57;-2.94;-0.65;-3.16;-5.55
18.62;-0.54;-1.31;1.74;-0.76;0.11
-0.76;-3.81;-0.54;9.80;3.27;0.87
-4.79;-2.18;-1.31;9.80;8.93;19.38
0.87;-4.57;-1.31;18.62;25.92;-0.76
2.50;1.09;-2.07;10.56;31.47;-16.01
2.50;1.09;0.33;8.17;29.08;-0.76
4.90;0.22;-5.34;-2.29;12.96;-19.28
8.17;4.25;-1.31;-3.05;-6.32;14.59
3.27;1.09;-0.54;-2.29;-19.28;-15.25
-22.43;-15.90;-1.31;-1.52;-24.07;-28.10
-2.29;-2.94;-1.31;10.56;-31.36;-3.92
2.50;-2.18;-3.70;0.98;-31.36;5.77
0.87;4.25;-1.31;-0.65;-30.49;7.30
-1.52;1.09;1.96;-2.29;-20.91;16.99
-20.04;-2.94;-1.31;-3.92;-2.29;-4.79
0.87;-0.54;-2.07;-2.29;12.20;-0.76
3.27;-2.18;-2.07;-4.68;17.86;10.56
-28.10;-5.34;0.33;0.11;10.56;0.87
-0.76;-6.97;3.48;-4.68;4.90;-2.29
-1.52;1.85;-25.48;-3.92;4.90;0.11
-0.76;0.22;-0.54;-0.65;5.77;1.74
-8.82;-2.94;-18.19;-2.29;-11.22;0.87
-7.95;-2.18;7.51;-0.65;-0.76;1.74
-1.52;-2.18;-0.54;-15.14;-15.25;0.87
0.87;-5.34;-1.31;-4.68;-7.19;-2.29
1.74;-2.94;-1.31;-0.65;-3.92;-8.82
3.27;1.09;-2.07;-2.29;2.50;-11.98
3.27;2.72;-2.94;-0.65;1.74;-8.82
4.14;-2.94;-5.34;-0.65;12.20;-5.55
8.93;-24.72;-2.07;2.50;6.53;1.74
7.30;-0.54;-8.60;-0.65;-7.19;3.27
7.30;-5.34;-0.54;-28.86;4.90;4.14
2.50;2.72;-1.31;2.50;2.50;11.33
0.87;1.09;-0.54;-2.29;0.11;8.93
1.74;-0.54;-1.31;1.74;-6.32;9.80
0.87;1.09;-0.54;-2.29;-5.55;18.62
0.87;3.48;-6.10;-0.65;4.14;2.50
-3.92;-5.34;7.51;8.17;4.14;1.74
-13.61;-33.54;-0.54;1.74;5.77;-2.29
-3.92;-0.54;1.09;1.74;2.50;-5.55
6.53;1.09;0.33;2.50;-0.76;-7.19
0.87;4.25;-0.54;0.11;4.90;-0.76
3.27;1.09;-1.31;-3.05;-13.61;0.87
16.99;-2.94;-1.31;-7.08;-0.76;0.11
4.14;-2.18;-0.54;0.11;4.90;-2.29
3.27;-4.57;-1.31;-3.92;4.90;-6.32
0.87;8.28;-0.54;0.11;1.74;-7.19
2.50;-1.31;-1.31;-3.05;-3.92;-3.92
-24.07;-0.54;-1.31;-2.29;-3.16;-7.95
-0.76;2.72;0.33;3.38;12.96;-5.55
-3.92;-0.54;1.09;28.31;-4.79;0.11
-0.76;-6.21;-4.57;13.07;-3.16;-2.29
-22.43;4.25;1.09;26.68;-10.35;-3.92
3.27;-2.18;-0.54;-0.65;-3.16;-0.76
3.27;4.25;2.72;1.74;-2.29;2.50
3.27;4.25;30.06;-7.08;-3.16;13.83
0.87;-2.18;-2.07;-13.61;0.11;7.30
4.14;-0.54;2.72;-2.29;4.14;4.14
0.11;2.72;2.72;-16.77;13.83;2.50
-3.92;-2.18;1.09;-1.52;17.86;3.27
-1.52;1.09;2.72;5.01;18.62;1.74
-4.79;1.09;2.72;6.53;21.89;-5.55
29.08;-2.18;-1.31;1.74;-10.35;-5.55
0.87;-0.54;-1.31;-1.52;0.11;-10.35
3.27;13.18;-2.94;1.74;-7.19;-10.35
3.27;-11.87;-4.57;2.50;-3.16;-21.67
-0.76;-2.94;-1.31;-3.92;-10.35;-8.82
-0.76;0.22;-1.31;0.11;-20.91;-7.19
-2.29;1.09;-2.94;-6.32;-24.94;-0.76
-1.52;5.12;-1.31;-11.11;-24.07;12.20
-7.95;1.09;-1.31;-3.92;-9.58;13.83
-7.95;0.22;-1.31;-6.32;16.23;15.35
-1.52;-2.94;-1.31;-3.05;7.30;5.77
3.27;3.48;-0.54;-4.68;4.90;-3.16
4.14;-2.18;-12.63;0.98;-0.76;-13.61
4.90;0.22;-0.54;5.77;-12.85;-24.07
0.87;13.94;1.09;2.50;-20.91;-16.88
3.27;-2.18;2.72;17.86;-11.98;-8.82
1.74;0.22;-1.31;1.74;-20.91;-7.95
-0.76;1.09;10.78;1.74;-4.79;1.74
2.50;2.72;4.36;-2.29;7.30;2.50
-0.76;1.85;3.48;0.11;16.99;1.74
-0.76;0.22;0.33;7.41;16.23;14.59
-3.92;-5.34;-2.07;5.77;8.93;4.14
-2.29;-3.81;-1.31;2.50;-2.29;14.59
3.27;-2.94;-1.31;-3.05;-9.58;12.20
7.30;5.12;-2.07;-3.92;-7.95;0.11
3.27;0.22;3.48;9.04;-11.22;3.27
-4.79;-3.81;-1.31;11.43;0.11;15.35
24.28;-0.54;-1.31;10.56;16.23;29.08
3.27;-0.54;-2.07;-2.29;25.05;27.44
3.27;1.09;-1.31;-3.92;22.65;16.99
-1.52;-2.94;-1.31;-6.32;23.41;1.74
-10.35;-2.18;-2.07;-3.05;20.26;0.11
0.87;1.09;0.33;11.43;18.62;-7.95
-1.52;1.09;-1.31;10.56;19.38;-11.22
2.50;3.48;-1.31;6.53;16.99;-11.22
4.90;-3.81;1.09;-3.92;4.90;-12.85
3.27;-2.94;3.48;-12.74;-3.16;-2.29
-0.76;-2.18;-0.54;-10.35;-12.85;-8.82
-7.19;-4.57;-1.31;-3.05;-18.40;-9.58
-3.92;-2.94;-1.31;-12.74;-24.94;-11.22
13.83;1.09;2.72;-10.35;-24.94;-8.82
-5.55;2.72;-2.07;-15.14;-32.89;-9.58
-0.76;1.09;-1.31;10.56;-23.30;-0.76
-1.52;-0.54;-1.31;0.11;-8.82;1.74
3.27;-0.54;-1.31;-0.65;-7.19;4.14
8.93;-2.18;-5.34;29.08;-2.29;2.50
3.27;1.09;11.54;10.56;-0.76;-0.76
-1.52;31.69;-1.31;-3.92;4.90;-8.82
-0.76;13.94;-1.31;3.38;8.93;-10.35
1.74;-3.81;-1.31;6.53;2.50;-3.92
-0.76;3.48;-1.31;5.01;14.59;7.30
3.27;0.22;0.33;5.01;10.56;27.44
7.30;2.72;6.75;1.74;10.56;17.86
3.27;-2.94;-2.07;9.04;8.17;8.93
21.02;2.72;1.09;0.11;10.56;27.44
-1.52;-0.54;6.75;1.74;6.53;5.77
-7.19;0.22;2.72;13.07;4.14;-3.16
-10.35;0.22;4.36;-0.65;4.90;-7.95
-18.40;-2.94;-16.66;-1.52;4.90;-10.35
-11.22;2.72;0.33;0.11;8.93;-11.98
0.11;3.48;5.99;-0.65;10.56;-11.98
-0.76;1.85;3.48;-1.52;6.53;-8.82
-7.19;1.09;-2.07;0.11;-8.82;-3.92
3.27;3.48;15.57;-4.68;-0.76;-6.32
2.50;1.09;-3.70;2.50;2.50;0.11
3.27;-6.97;-4.57;-0.65;0.11;-4.79
-0.76;2.72;-0.54;-3.05;-10.35;0.87
13.83;2.72;-1.31;-1.52;-18.40;1.74
3.27;-2.18;-3.70;-7.95;-18.40;-7.19
1.74;-0.54;-1.31;-3.92;-15.25;-7.19
-6.32;13.18;-1.31;-12.74;-9.58;-3.92
5.77;2.72;-0.54;-0.65;-28.86;1.74
0.87;0.22;27.66;0.98;-5.55;-0.76
-0.76;0.22;-1.31;0.11;-8.82;1.74
1.74;41.38;-1.31;-30.49;-6.32;1.74
-2.29;-6.21;3.48;-1.52;2.50;1.74
-1.52;-3.81;3.48;-1.52;4.90;0.87
-9.58;20.36;4.36;-3.05;4.90;1.74
-8.82;-3.81;3.48;-14.37;6.53;1.74
-6.32;0.22;1.09;6.53;9.80;5.77
-4.79;-2.94;-1.31;16.23;20.26;1.74
3.27;1.09;0.33;10.56;10.56;-11.98
12.20;0.22;-1.31;10.56;13.83;1.74
-22.43;-0.54;0.33;10.56;12.20;1.74
3.27;9.15;-1.31;3.38;15.35;-5.55
4.90;-2.18;-10.13;-2.29;23.41;-26.46
3.27;2.72;-1.31;-35.28;29.08;1.74
3.27;-0.54;-0.54;-7.08;4.14;7.30
3.27;-2.94;-0.54;-9.58;16.99;5.77
-11.22;0.22;-2.94;-4.68;19.38;7.30
-4.79;-2.18;-1.31;-15.14;-12.85;4.90
0.87;-0.54;5.99;-0.65;-30.49;6.53
-1.52;3.48;-1.31;-0.65;-46.61;0.87
-0.76;5.12;-2.07;-3.05;-53.03;-13.61
3.27;0.22;10.78;-1.52;-49.00;-19.28
0.87;3.48;-6.97;1.74;-42.58;-12.85
0.87;-2.94;3.48;0.11;-24.07;-9.58
-0.76;1.09;0.33;-3.05;-8.82;-7.19
-2.29;-2.94;0.33;-4.68;-2.29;-2.29
-8.82;-3.81;-0.54;-3.05;11.33;1.74
-7.95;4.25;2.72;-2.29;4.90;8.93
-9.58;0.22;-1.31;3.38;21.02;8.93
15.35;1.09;-0.54;-2.29;16.99;3.27
-0.76;5.12;-1.31;2.50;17.86;-2.29
3.27;2.72;-3.70;-0.65;19.38;-8.82
7.30;0.22;15.57;9.04;15.35;0.11
5.77;1.09;18.84;0.98;16.23;2.50
7.30;-19.93;-0.54;6.53;12.20;-2.29
-4.79;-22.32;-2.07;5.77;7.30;0.87
-1.52;-2.94;2.72;10.56;17.86;0.87
-0.76;-2.18;-0.54;12.20;21.89;1.74
-7.19;-6.21;-1.31;9.04;17.86;5.77
-0.76;3.48;-1.31;2.50;12.20;1.74
1.74;1.85;-1.31;-0.65;4.90;4.14
-27.33;-24.72;2.72;-4.68;-5.55;1.74
-5.55;0.22;2.72;8.17;-11.98;-0.76
7.30;0.22;5.99;-7.08;-8.82;-2.29
-3.92;-2.18;-1.31;9.80;-3.92;-6.32
15.35;-3.81;4.36;6.53;-12.85;-6.32
0.11;0.22;0.33;-0.65;-16.01;-2.29
3.27;-0.54;2.72;-9.58;-20.91;4.14
11.33;-2.18;0.33;-16.77;-18.40;5.77
2.50;10.67;-2.07;-32.13;-20.91;10.56
-0.76;0.22;-25.48;-15.14;-15.25;4.14
1.74;-0.54;-8.60;-12.74;-7.95;10.56
3.27;1.09;-27.88;-3.05;-3.16;10.56
4.14;2.72;-1.31;-1.52;-5.55;2.50
5.77;0.22;-1.31;5.77;7.30;-8.82
4.90;-0.54;-2.07;8.17;4.90;-15.25
0.87;-0.54;-1.31;6.53;8.93;-24.07
5.77;26.79;-2.07;7.41;9.80;-2.29
3.27;-0.54;1.09;10.56;12.20;0.87
-2.29;5.12;-1.31;4.14;4.90;1.74
-9.58;-2.94;0.33;0.11;0.87;3.27
-9.58;-2.18;1.09;-1.52;0.87;2.50
-1.52;-2.94;-1.31;2.50;-2.29;5.77
-5.55;-6.97;0.33;3.38;0.11;1.74
-1.52;1.09;4.36;1.74;-5.55;0.11
-1.52;5.12;1.09;3.38;-3.92;-9.58
-2.29;-3.81;0.33;9.80;2.50;4.90
-0.76;-3.81;2.72;12.20;12.20;-2.29
8.93;-2.94;-5.34;10.56;21.02;13.83
3.27;0.22;16.44;1.74;28.31;1.74
3.27;-0.54;1.96;-7.95;21.89;7.30
3.27;1.09;-2.07;-12.74;12.20;9.80
3.27;-0.54;-3.70;-14.37;1.74;3.27
3.27;0.22;-1.31;-15.14;-5.55;-7.19
2.50;-2.18;-27.88;-7.08;-18.40;-2.29
-7.95;2.72;-1.31;-4.68;-25.70;-3.16
0.11;-0.54;-1.31;-6.32;-36.92;-9.58
0.11;2.72;-4.57;5.77;-28.86;-7.19
0.87;-2.94;-1.31;5.77;-11.22;-16.01
-4.79;28.42;-0.54;10.56;5.77;-11.98
-1.52;-0.54;-0.54;36.37;16.99;-6.32
3.27;17.21;-1.31;-26.46;18.62;1.74
1.74;-2.94;-1.31;-0.65;14.59;9.80
-1.52;0.22;6.75;-2.29;10.56;8.93
3.27;3.48;6.75;-3.05;4.14;1.74
-11.98;10.67;0.33;-0.65;0.11;-2.29
-1.52;-0.54;2.72;1.74;-13.61;1.74
-4.79;-2.94;-1.31;-1.52;-20.91;1.74
1.74;17.21;-1.31;18.62;-5.55;1.74
4.90;1.85;5.99;-2.29;-1.52;-13.61
-0.76;5.12;-11.76;-3.92;0.87;-24.07
-1.52;-3.81;-8.60;1.74;7.30;-11.22
2.50;-2.94;-3.70;-1.52;4.90;2.50
-0.76;-5.34;0.33;0.11;0.11;10.56
-1.52;4.25;10.78;0.98;4.14;10.56
8.93;1.09;-2.07;2.50;-7.95;10.56
10.56;4.25;-2.07;1.74;-10.35;6.53
2.50;3.48;-1.31;3.38;-20.91;4.14
-0.76;0.22;-2.07;-3.92;-9.58;1.74
1.74;-2.18;-0.54;-27.22;-5.55;1.74
-0.76;-1.31;-0.54;-6.32;0.87;1.74
-0.76;-3.81;0.33;-9.58;-6.32;2.50
-4.79;1.09;2.72;-1.52;0.87;-10.35
-7.19;-6.97;-6.10;5.01;0.87;9.80
-0.76;0.22;2.72;0.11;4.90;-3.16
16.99;0.22;-0.54;-2.29;10.56;-2.29
-7.19;-0.54;0.33;2.50;16.99;1.74
-43.45;-5.34;-1.31;-2.29;9.80;-0.76
-0.76;5.12;1.09;-0.65;8.93;-3.92
-19.28;-6.97;-1.31;-0.65;4.14;-3.92
25.05;5.12;-2.07;-3.05;3.27;5.77
-1.52;1.09;1.09;-0.65;-5.55;-6.32
5.77;1.09;-1.31;0.98;3.27;-3.16
8.17;2.72;1.09;9.04;-2.29;12.20
-29.73;-2.18;-0.54;10.56;3.27;-6.32
-0.76;1.85;-1.31;1.74;5.77;1.74
0.87;-2.94;0.33;4.14;15.35;-0.76
0.87;-0.54;-1.31;-0.65;9.80;0.11
-7.19;1.09;0.33;0.11;15.35;1.74
-9.58;-0.54;-0.54;-3.05;4.90;1.74
-10.35;-4.57;1.09;-2.29;-8.82;-2.29
0.87;0.22;2.72;-0.65;-13.61;-11.22
3.27;3.48;-0.54;3.38;-20.04;-15.25
-0.76;30.82;2.72;1.74;-29.73;4.14
4.14;-3.81;1.09;-2.29;-16.01;13.83
-4.79;-2.94;22.87;0.11;-6.32;15.35
-5.55;0.22;3.48;-4.68;-2.29;6.53
2.50;-0.54;-2.94;2.50;4.90;1.74
-26.46;-2.94;-1.31;-3.92;4.90;-7.95
3.27;-2.18;-2.07;-6.32;0.87;-34.52
3.27;-3.81;-4.57;-6.32;-16.88;-11.22
1.74;-1.31;-3.70;24.28;2.50;-8.82
3.27;-11.87;-1.31;5.01;4.14;-8.82
12.20;-2.18;-1.31;-11.11;2.50;-7.19
3.27;2.72;-1.31;-28.10;4.14;-2.29
0.87;-2.94;1.96;4.14;-8.82;-3.16
1.74;-3.81;-1.31;7.41;-20.04;-5.55
21.89;1.09;1.09;-0.65;4.90;0.87
-16.88;4.25;0.33;-11.98;4.90;0.87
10.56;3.48;0.33;4.14;4.90;7.30
1.74;-2.18;-1.31;-2.29;6.53;5.77
-0.76;-23.09;0.33;19.49;4.14;7.30
27.44;1.85;4.36;-3.05;3.27;13.83
-0.76;1.09;-23.85;-2.29;1.74;8.93
0.11;-2.18;4.36;-3.05;-4.79;4.90
-29.73;0.22;0.33;-2.29;-6.32;1.74
3.27;1.09;15.57;-2.29;-3.16;28.31
3.27;4.25;2.72;-2.29;-4.79;-6.32
0.87;1.09;-1.31;-3.05;-20.04;-2.29
-1.52;-2.18;-1.31;1.74;0.11;-3.16
2.50;-20.69;0.33;9.04;7.30;-3.16
3.27;1.85;-1.31;-1.52;2.50;-3.16
-2.29;-2.18;-1.31;-3.92;4.90;-22.43
-0.76;30.82;-2.94;-12.74;5.77;0.87
0.87;-2.94;-3.70;-1.52;4.90;1.74
3.27;2.72;3.48;8.17;4.14;2.50
15.35;-2.94;-1.31;-16.77;1.74;-2.29
3.27;23.63;-1.31;-2.29;2.50;-6.32
3.27;-2.94;-1.31;-2.29;-3.16;-1.52
8.17;-20.69;3.48;0.11;2.50;0.87
-6.32;-25.48;3.48;23.52;-5.55;-0.76
0.87;2.72;1.09;3.38;0.11;-3.16
2.50;-2.18;6.75;0.11;-2.29;0.87
-2.29;-29.51;1.96;-22.43;4.90;1.74
-5.55;4.25;7.51;-14.37;10.56;2.50
-8.82;-2.18;-1.31;-3.05;13.83;1.74
-4.79;-5.34;-1.31;-9.58;9.80;-3.16
-0.76;-2.18;4.36;1.74;3.27;1.74
4.90;4.25;1.09;-2.29;2.50;7.30
3.27;5.12;-2.07;-3.92;-2.29;-6.32
-24.94;5.12;-5.34;8.17;-5.55;-27.33
-7.19;-1.31;-2.07;-5.55;-15.25;-26.46
-1.52;1.85;-1.31;1.74;2.50;-6.32
3.27;2.72;-3.70;5.77;-7.19;-20.91
4.90;2.72;-1.31;-4.68;-16.88;4.14
3.27;5.12;-1.31;1.74;-7.19;12.96
8.17;4.25;-1.31;0.11;2.50;1.74
24.28;4.25;-7.73;-1.52;12.20;33.11
5.77;3.48;-25.48;-2.29;9.80;32.34
3.27;-11.87;-1.31;-3.05;8.17;10.56
4.90;-3.81;-1.31;-3.05;15.35;1.74
-3.92;-13.39;7.51;9.04;16.23;2.50
20.26;-3.81;4.36;22.65;20.26;-8.82
20.26;2.72;-1.31;10.56;16.99;-6.32
1.74;5.12;1.09;5.01;4.90;9.80
-7.19;-2.18;1.96;-10.35;-8.82;-5.55
-9.58;-24.72;-2.07;-16.77;-19.28;-12.85
-28.10;-6.97;-3.70;-17.64;-30.49;-6.32
-0.76;2.72;-1.31;-20.04;-40.95;0.11
-1.52;2.72;-1.31;-20.04;-37.79;-3.16
4.90;1.09;-3.70;-16.01;-35.39;-11.98
12.20;0.22;-3.70;-11.11;-20.91;-11.22
3.27;2.72;0.33;1.74;-11.98;-3.16
0.87;-1.31;-1.31;5.01;4.90;-5.55
-7.19;-7.84;0.33;8.17;12.96;1.74
-9.58;0.22;-1.31;6.53;16.99;-6.32
-0.76;5.12;-2.94;10.56;18.62;-3.92
2.50;3.48;-1.31;11.43;17.86;-3.16
8.93;3.48;0.33;9.80;20.26;1.74
5.77;32.45;-0.54;9.04;13.83;0.11
1.74;1.85;0.33;9.80;10.56;1.74
-3.92;-5.34;2.72;5.01;4.90;5.77
-2.29;1.09;8.39;-2.29;4.90;4.14
4.90;-0.54;2.72;0.11;8.93;9.80
4.90;1.09;2.72;-3.05;8.93;30.71
0.87;2.72;9.15;0.98;12.20;16.99
-5.55;-3.81;7.51;-0.65;1.74;5.77
-2.29;2.72;4.36;-2.29;-3.16;-2.29
-1.52;30.06;-1.31;-4.68;0.87;0.87
-6.32;-2.18;-0.54;-2.29;-3.16;1.74
0.87;-4.57;-1.31;1.74;-32.13;1.74
1.74;16.33;-2.07;9.80;20.26;1.74
0.87;0.22;-2.07;0.11;-12.85;-0.76
4.90;-26.35;-1.31;-2.29;-9.58;-6.32
3.27;0.22;-1.31;5.77;-30.49;0.87
4.14;4.25;-0.54;-4.68;4.14;0.87
-13.61;0.22;-1.31;-12.74;2.50;-0.76
-0.76;5.12;1.96;-10.35;0.87;-6.32
1.74;-5.34;-0.54;-3.05;-3.16;-11.98
-3.16;2.72;-0.54;-2.29;9.80;-9.58
-0.76;0.22;-1.31;0.11;17.86;-11.98
-3.92;-2.18;-1.31;8.17;26.68;-1.52
1.74;-5.34;11.54;6.53;23.41;1.74
3.27;-3.81;11.54;2.50;6.53;3.27
-1.52;-10.24;17.21;3.38;-2.29;28.31
-2.29;0.22;4.36;5.77;-6.32;12.20
0.87;2.72;16.44;2.50;-19.28;4.14
0.87;-4.57;2.72;2.50;-28.10;2.50
-0.76;-2.94;0.33;23.52;-29.73;-2.29
1.74;1.09;-3.70;-3.05;-33.76;-7.19
1.74;-5.34;-3.70;2.50;-20.04;-11.22
-1.52;4.25;1.09;-2.29;-2.29;-9.58
4.14;-5.34;-0.54;0.11;13.83;-8.82
3.27;3.48;-9.37;0.98;19.38;-5.55
3.27;-12.63;-1.31;-4.68;21.89;16.23
-0.76;1.85;-1.31;-0.65;16.23;1.74
3.27;-10.24;-1.31;-2.29;7.30;12.96
2.50;1.09;-6.97;3.38;5.77;15.35
-1.52;1.09;-0.54;1.74;-4.79;6.53
5.77;-2.94;-1.31;0.11;-11.98;-3.16
28.31;-0.54;0.33;0.11;-11.98;1.74
1.74;2.72;-1.31;1.74;-3.92;14.59
2.50;1.85;2.72;0.11;0.87;10.56
-11.98;-11.87;-0.54;2.50;0.11;12.96
-9.58;-2.18;-0.54;1.74;4.90;6.53
-2.29;-2.94;0.33;-3.05;4.90;28.31
1.74;-5.34;2.72;-1.52;4.90;-2.29
-0.76;3.48;-15.03;-3.05;0.87;-12.85
3.27;-0.54;-9.37;-1.52;-8.82;-12.85
3.27;-2.18;-2.07;-6.32;-3.16;-8.82
1.74;-0.54;-5.34;22.65;4.14;-10.35
0.87;-15.03;-2.94;3.38;7.30;-2.29
3.27;-2.18;-1.31;5.01;8.93;0.11
3.27;9.15;-1.31;-0.65;5.77;-0.76
3.27;0.22;2.72;2.50;0.87;-7.19
-8.82;-5.34;-1.31;27.55;-11.98;-3.92
-2.29;-4.57;-1.31;2.50;-1.52;-0.76
-0.76;-5.34;-1.31;10.56;2.50;1.74
-1.52;-0.54;-1.31;14.59;0.11;1.74
3.27;-2.94;1.09;25.92;4.14;0.11
2.50;-2.94;-26.24;0.11;12.96;-18.40
-1.52;-10.24;2.72;-1.52;8.93;5.77
2.50;-9.37;3.48;-11.11;4.14;1.74
-2.29;-7.84;4.36;-14.37;6.53;1.74
-4.79;-28.75;1.09;-11.98;5.77;6.53
16.23;-28.75;-0.54;-6.32;0.11;5.77
0.87;32.45;1.09;-7.08;-3.16;5.77
-0.76;-2.94;1.09;-2.29;-26.46;1.74
-16.88;1.09;-1.31;-2.29;-15.25;0.11
1.74;1.09;-1.31;-3.05;-7.19;-3.16
-21.67;-8.60;-3.70;1.74;2.50;-11.98
12.20;-6.21;-5.34;-2.29;3.27;-13.61
-0.76;-2.18;-6.10;-11.11;0.87;-6.32
-1.52;3.48;-1.31;-3.92;-4.79;1.74
1.74;-1.31;-1.31;3.38;0.11;1.74
-2.29;5.12;-1.31;11.43;0.11;-9.58
-7.95;-2.18;-1.31;5.77;-10.35;-2.29
0.87;4.25;-1.31;9.04;-12.85;0.87
5.77;4.25;0.33;0.11;-16.01;7.30
-0.76;-2.18;-1.31;24.28;-7.19;2.50
1.74;-4.57;-2.94;-15.14;-9.58;1.74
21.89;2.72;-23.09;-7.08;0.87;1.74
3.27;3.48;1.96;-9.58;5.77;-2.29
-4.79;22.00;1.09;-3.05;6.53;0.87
1.74;-2.94;3.48;-1.52;6.53;4.14
0.11;-2.94;6.75;3.38;7.30;-1.52
2.50;0.22;0.33;1.74;4.14;2.50
-1.52;1.09;0.33;5.77;0.11;1.74
2.50;1.09;-3.70;-0.65;4.14;-6.32
-3.92;-2.94;-1.31;36.37;5.77;-2.29
-33.76;4.25;-1.31;13.07;4.90;-0.76
3.27;5.12;-1.31;19.49;21.02;0.11
11.33;31.69;-5.34;10.56;20.26;-6.32
31.47;5.12;-0.54;5.77;8.17;-2.29
4.14;0.22;2.72;-9.58;16.99;-5.55
4.90;-3.81;-0.54;-10.35;16.23;-1.52
-7.19;-2.94;-2.07;-12.74;4.90;2.50
0.87;-6.97;-19.82;-11.98;-5.55;-5.55
-0.76;-1.31;-1.31;-11.11;-33.76;-0.76
3.27;-2.18;-1.31;-3.92;-26.46;3.27
4.14;-2.18;-25.48;-4.68;-21.67;8.93
3.27;-2.94;3.48;4.14;-19.28;7.30
-0.76;-2.18;0.33;0.11;-16.88;-6.32
-5.55;-27.99;0.33;3.38;-11.22;0.87
-1.52;-0.54;6.75;3.38;-3.92;-3.92
0.11;-6.21;-0.54;-2.29;2.50;-3.92
-12.85;-2.18;1.09;30.71;1.74;-15.25
-16.88;1.09;-1.31;-6.32;4.90;-12.85
-10.35;-6.21;-0.54;0.11;8.93;-9.58
0.87;-2.18;1.09;12.20;10.56;-0.76
29.95;1.09;0.33;5.01;-3.92;0.87
-0.76;-5.34;-1.31;6.53;10.56;1.74
-3.92;-2.18;-1.31;-2.29;5.77;0.87
3.27;2.72;-2.94;-9.58;5.77;1.74
1.74;-3.81;-2.07;-5.55;7.30;31.47
3.27;2.72;-0.54;-3.92;22.65;3.27
3.27;-11.00;1.09;0.11;10.56;4.14
2.50;1.85;-1.31;33.98;8.93;4.14
3.27;-0.54;-1.31;-0.65;6.53;11.33
2.50;-2.94;-0.54;14.59;1.74;16.99
5.77;5.12;-1.31;6.53;-8.82;18.62
3.27;1.09;-0.54;-2.29;-10.35;12.96
-0.76;1.09;-1.31;0.98;-15.25;7.30
3.27;4.25;3.48;-18.40;-16.01;0.11
-0.76;0.22;-1.31;0.11;-16.01;-24.07
-0.76;0.22;4.36;-2.29;-8.82;-7.19
1.74;2.72;1.96;-0.65;-5.55;-10.35
-1.52;2.72;26.03;-3.92;0.11;-14.37
-0.76;0.22;0.33;2.50;0.87;-5.55
0.11;-15.90;-0.54;-1.52;8.93;1.74
-4.79;1.09;-3.70;-3.05;22.65;0.11
2.50;1.09;-2.94;-0.65;4.90;1.74
1.74;1.09;-1.31;2.50;5.77;1.74
4.90;2.72;-11.76;0.98;20.26;-14.37
2.50;-0.54;-1.31;9.04;29.08;-12.85
0.11;2.72;-2.07;9.04;26.68;0.11
3.27;-2.94;-1.31;7.41;9.80;-21.67
-3.92;-3.81;-2.94;1.74;4.90;5.77
3.27;-0.54;-2.07;0.11;0.11;6.53
0.87;1.09;-1.31;6.53;-9.58;1.74
0.87;5.12;-0.54;-1.52;-20.91;2.50
3.27;1.85;-0.54;6.53;-22.43;1.74
1.74;-8.60;1.09;-3.05;-28.10;0.11
-5.55;-3.81;5.99;-6.32;-24.07;-0.76
-4.79;-0.54;1.09;-19.17;15.35;-2.29
-0.76;-3.81;2.72;-10.35;-5.55;-6.32
1.74;3.48;4.36;-6.32;-6.32;-9.58
5.77;0.22;-0.54;3.38;-6.32;-6.32
-0.76;-2.18;-1.31;-3.05;3.27;1.74
1.74;-0.54;4.36;-2.29;6.53;2.50
3.27;-2.18;-1.31;4.14;16.23;1.74
16.99;-6.21;-2.07;3.38;20.26;0.87
-5.55;-0.54;-2.07;-12.74;25.92;-5.55
-5.55;-6.21;-1.31;10.56;18.62;-26.46
-13.61;-2.18;-1.31;4.14;12.96;-8.82
-3.92;0.22;-1.31;-2.29;4.90;-9.58
-0.76;-6.97;-1.31;-9.58;-3.16;0.11
-2.29;2.72;2.72;-12.74;-3.16;1.74
24.28;1.09;-1.31;-9.58;-16.88;3.27
2.50;1.09;-1.31;-13.61;-36.15;3.27
-29.73;1.85;0.33;-1.52;-20.91;6.53
3.27;-2.18;-3.70;-7.08;-15.25;12.20
2.50;-1.31;3.48;-3.05;0.87;2.50
-5.55;5.12;3.48;-22.43;-7.19;0.87
0.11;-4.57;-8.60;-1.52;-5.55;1.74
-31.36;-5.34;-1.31;-26.46;-5.55;0.87
-2.29;-2.18;-1.31;1.74;4.90;-3.16
-15.25;-21.45;-1.31;0.11;-5.55;-0.76
-5.55;-0.54;-0.54;9.80;3.27;-6.32
-5.55;4.25;-1.31;5.01;8.93;-10.35
3.27;3.48;-2.07;2.50;13.83;-5.55
8.17;-2.94;-15.79;0.11;17.86;-6.32
4.90;3.48;0.33;33.98;14.59;1.74
2.50;-24.72;-0.54;3.38;21.02;4.90
4.14;3.48;0.33;3.38;21.89;13.83
4.90;-7.84;-1.31;4.14;15.35;3.27
1.74;4.25;-0.54;7.41;4.90;0.87
1.74;0.22;1.09;0.11;-0.76;-3.92
0.87;-3.81;-0.54;-2.29;-2.29;0.87
4.14;-2.94;-1.31;-4.68;-5.55;1.74
-0.76;2.72;-2.94;-0.65;-6.32;1.74
-7.19;1.09;0.33;-10.35;1.74;2.50
-7.95;-0.54;2.72;3.38;15.35;0.11
1.74;-9.37;3.48;-4.68;2.50;4.14
-8.82;0.22;4.36;-2.29;-3.16;-8.82
0.11;-6.21;4.36;-1.52;-5.55;-7.19
5.77;-2.94;2.72;-4.68;-9.58;-5.55
4.14;3.48;-2.94;-6.32;-3.16;-11.22
5.77;7.51;-1.31;-5.55;4.90;-22.43
-0.76;-3.81;-23.09;-3.05;9.80;-16.88
17.86;3.48;-2.07;-16.01;35.50;-3.92
1.74;3.48;-5.34;2.50;4.14;7.30
1.74;3.48;-1.31;0.98;0.11;27.44
3.27;2.72;-2.07;10.56;-7.19;33.11
29.08;5.12;-2.07;5.77;-15.25;27.44
5.77;1.85;-0.54;-1.52;-22.43;13.83
-9.58;-3.81;0.33;-28.86;-29.73;1.74
0.87;1.09;-1.31;-15.14;-20.91;-10.35
-0.76;-2.94;-2.94;-28.86;-11.98;-15.25
0.87;-2.18;-1.31;-12.74;23.41;-17.64
-3.92;-3.81;-2.94;-4.68;4.14;-18.40
3.27;-0.54;-0.54;-0.65;0.87;-19.28
-0.76;1.09;1.09;1.74;0.87;-11.98
-3.92;-2.18;19.60;5.01;7.30;-0.76
-7.19;1.85;5.99;12.20;12.20;-11.22
-2.29;1.85;4.36;18.62;10.56;-7.95
-4.79;1.09;10.02;15.46;17.86;16.99
-22.43;6.64;-1.31;8.17;16.99;20.26
-14.37;-0.54;-1.31;-3.92;12.96;16.23
-4.79;-2.94;-6.97;-3.92;7.30;6.53
-16.88;1.09;-2.94;-7.95;5.77;5.77
4.14;-2.94;-1.31;-3.92;4.14;1.74
0.87;0.22;-1.31;-4.68;-7.19;-29.73
4.14;2.72;-0.54;-1.52;-7.19;-0.76
3.27;-0.54;-3.70;-3.05;-8.82;-2.29
0.87;-2.18;-1.31;-3.05;-0.76;-5.55
4.90;1.09;-1.31;0.98;-0.76;1.74
5.77;-2.94;-3.70;3.38;-3.92;-2.29
2.50;2.72;-1.31;-15.14;4.90;0.87
3.27;-6.97;5.12;6.53;5.77;-0.76
3.27;1.85;2.72;6.53;13.83;18.62
-5.55;-4.57;-8.60;1.74;19.38;7.30
-3.92;-0.54;2.72;1.74;18.62;0.11
-6.32;1.09;0.33;7.41;10.56;16.23
-6.32;-28.75;1.96;10.56;4.90;1.74
-1.52;0.22;0.33;5.77;-3.92;1.74
2.50;0.22;2.72;-3.05;-19.28;2.50
0.87;-0.54;1.09;0.11;-28.10;-5.55
3.27;-5.34;-1.31;-4.68;-29.73;-8.82
3.27;2.72;-2.07;-3.92;-23.30;-8.82
2.50;2.72;-27.12;-3.05;-20.04;-23.30
-24.94;5.12;-1.31;0.11;-12.85;1.74
3.27;1.09;11.54;-0.65;0.11;1.74
2.50;2.72;-2.94;25.92;4.90;-2.29
4.14;1.09;-1.31;-3.92;7.30;-3.92
6.53;0.22;-1.31;-16.01;4.90;-3.92
-2.29;-3.81;-6.10;-4.68;3.27;-3.92
-1.52;-2.94;-19.06;-0.65;7.30;1.74
1.74;-5.34;-3.70;3.38;7.30;-7.19
0.87;-3.81;-1.31;10.56;6.53;-2.29
-0.76;-3.81;-1.31;-6.32;-0.76;-3.16
3.27;-0.54;-0.54;21.89;4.14;0.11
0.87;1.09;1.09;3.38;4.90;2.50
-1.52;-2.18;6.75;0.11;4.90;1.74
5.77;-0.54;1.09;-1.52;20.26;1.74
-2.29;3.48;3.48;1.74;8.17;1.74
-33.76;-26.35;3.48;-15.14;5.77;3.27
-7.19;-2.94;1.09;3.38;15.35;7.30
-5.55;-16.66;-1.31;-11.11;-4.79;3.27
-8.82;1.09;-1.31;2.50;-5.55;-3.16
-5.55;0.22;-2.07;-1.52;-1.52;3.27
0.87;-2.18;-3.70;9.04;4.90;0.11
3.27;1.09;-2.07;23.52;5.77;2.50
16.23;1.09;0.33;11.43;17.86;12.96
14.59;1.09;-1.31;5.77;20.26;25.92
3.27;-3.81;-1.31;1.74;15.35;22.65
21.89;-2.94;-1.31;-7.95;10.56;8.93
3.27;-0.54;-1.31;-14.37;0.87;4.14
25.05;2.72;-0.54;-12.74;-6.32;1.74
3.27;1.09;-1.31;-11.11;-20.04;-2.29
0.11;-3.81;-1.31;-15.14;-24.94;-8.82
-1.52;28.42;1.09;13.07;-23.30;-3.92
-5.55;-3.81;16.44;-2.29;-22.43;-21.67
-2.29;-5.34;4.36;-7.08;-26.46;-15.25
-5.55;-0.54;4.36;3.38;-7.19;-34.52
-7.19;-5.34;0.33;1.74;5.77;-7.95
0.11;-2.18;-1.31;-2.29;5.77;-7.95
0.87;-5.34;-1.31;1.74;9.80;-16.88
-26.46;0.22;-1.31;5.01;10.56;-11.22
2.50;-11.87;-1.31;5.01;15.35;-1.52
0.11;-2.18;-1.31;2.50;6.53;0.87
0.87;-2.18;1.96;3.38;5.77;1.74
1.74;2.72;0.33;3.38;4.90;2.50
-3.92;2.72;-1.31;1.74;5.77;-10.35
-2.29;1.09;0.33;1.74;-7.19;0.11
1.74;5.12;-3.70;0.11;-16.88;2.50
-11.22;-7.84;-1.31;1.74;-7.95;0.11
-4.79;1.85;2.72;-1.52;-8.82;-5.55
-1.52;-2.94;-0.54;0.11;-8.82;0.11
0.87;-2.94;-0.54;2.50;-8.82;0.87
0.11;1.09;-12.63;-6.32;-15.25;1.74
2.50;16.33;-0.54;-1.52;-20.91;4.14
2.50;-2.94;-21.45;-2.29;-11.98;3.27
5.77;-2.94;-1.31;5.01;-0.76;9.80
3.27;-5.34;3.48;-4.68;4.90;3.27
1.74;-0.54;4.36;-1.52;4.90;4.14
1.74;-0.54;-1.31;0.98;4.90;-9.58
0.87;-3.81;-1.31;-2.29;4.90;5.77
-13.61;-31.15;-2.07;-0.65;10.56;7.30
-24.94;-2.18;-1.31;10.56;14.59;16.23
0.87;5.12;-1.31;17.86;18.62;15.35
-1.52;2.72;-5.34;10.56;25.92;8.93
3.27;5.12;-1.31;10.56;30.71;1.74
3.27;-0.54;-2.94;2.50;17.86;-9.58
7.30;4.25;-1.31;-3.92;5.77;-2.29
7.30;-28.75;-2.07;-16.77;-9.58;-24.94
1.74;0.22;23.63;-19.17;-17.64;12.96
0.87;1.85;-1.31;-16.77;-6.32;0.11
-0.76;-2.18;-1.31;-15.14;-16.88;-5.55
-0.76;-2.94;-1.31;-3.05;-20.91;-1.52
-6.32;5.12;-1.31;22.65;-20.91;-6.32
-7.19;2.72;-2.07;2.50;-20.91;-27.33
-7.19;-6.97;-0.54;7.41;-16.88;-2.29
-7.95;-2.18;-0.54;10.56;-8.82;2.50
4.14;1.09;7.51;10.56;1.74;8.93
3.27;4.25;3.48;8.17;1.74;6.53
0.87;-8.60;1.96;10.56;8.93;0.11
-1.52;-6.97;-1.31;9.04;12.96;-3.16
2.50;-5.34;-1.31;2.50;21.89;-3.16
3.27;0.22;-1.31;0.11;20.26;-2.29
3.27;-24.72;-2.07;-1.52;14.59;1.74
0.87;5.12;-0.54;-7.95;7.30;0.87
2.50;2.72;0.33;-3.05;3.27;-3.92
2.50;5.12;-3.70;-20.04;2.50;0.87
3.27;-19.93;-1.31;-2.29;-7.95;0.11
2.50;-2.18;2.72;-7.08;-6.32;0.87
2.50;-2.18;-0.54;0.11;-5.55;-3.92
4.14;1.09;0.33;0.98;-5.55;0.87
-1.52;-0.54;-1.31;0.11;-7.95;1.74
-0.76;-2.18;-0.54;0.98;-7.95;5.77
2.50;-2.94;3.48;2.50;-7.19;3.27
1.74;-6.97;-1.31;1.74;-3.16;1.74
-0.76;-5.34;6.75;-0.65;2.50;2.50
-5.55;-2.18;6.75;-2.29;5.77;1.74
-6.32;-1.31;7.51;-0.65;10.56;1.74
-6.32;-2.18;4.36;-2.29;8.17;-12.85
-3.92;-20.69;-1.31;2.50;9.80;-1.52
33.11;1.85;-6.97;0.98;5.77;1.74
2.50;-2.94;4.36;-2.29;5.77;-2.29
4.14;4.25;-3.70;-0.65;1.74;-11.22
13.83;1.09;-1.31;-1.52;2.50;-8.82
5.77;1.09;-3.70;-2.29;-2.29;-11.22
3.27;4.25;-0.54;-0.65;-3.16;-19.28
-3.92;22.00;1.09;25.05;-22.43;-20.04
-2.29;-5.34;-1.31;-4.68;-11.98;-6.32
-7.19;-2.18;-1.31;-0.65;-8.82;3.27
-11.98;-3.81;-4.57;5.77;-7.19;26.68
-5.55;-2.18;-1.31;2.50;-2.29;32.34
2.50;-2.94;-1.31;0.98;4.90;26.68
-8.82;-2.94;-1.31;2.50;9.80;26.68
2.50;-0.54;-1.31;6.53;13.83;29.95
3.27;-2.18;-1.31;0.11;5.77;-7.19
0.87;-2.94;0.33;2.50;8.93;-3.16
3.27;-3.81;19.60;3.38;16.99;0.87
0.87;5.12;0.33;-1.52;10.56;0.87
-0.76;4.25;4.36;-24.07;8.17;-10.35
1.74;-3.81;2.72;-2.29;12.96;1.74
-2.29;-2.94;-1.31;-3.05;4.14;-10.35
0.87;-2.18;-1.31;11.43;-5.55;-5.55
2.50;5.12;-1.31;-0.65;-8.82;1.74
3.27;0.22;0.33;-4.68;-20.91;-2.29
-2.29;-0.54;-1.31;-2.29;-28.10;-9.58
3.27;1.09;-2.94;-15.14;-31.36;-11.98
3.27;5.12;-2.07;6.53;-37.79;-11.22
3.27;2.72;-0.54;3.38;-29.73;-11.98
2.50;-3.81;-0.54;-1.52;-20.91;-24.07
-7.19;-1.31;1.09;-8.71;-20.91;-38.55
-8.82;-2.18;19.60;-18.40;-5.55;-5.55
-22.43;-23.09;-0.54;-16.01;6.53;15.35
0.87;4.25;-6.10;-12.74;17.86;25.05
0.11;-15.03;-4.57;-7.08;20.26;19.38
3.27;4.25;-0.54;0.11;2.50;21.89
1.74;-0.54;-1.31;6.53;12.96;11.33
-1.52;23.63;0.33;31.58;15.35;-0.76
0.87;-5.34;-0.54;10.56;7.30;-5.55
-2.29;-0.54;19.60;9.80;16.99;-6.32
-3.92;-2.18;1.96;11.43;16.23;-8.82
-8.82;7.51;-2.07;9.04;8.93;0.11
1.74;2.72;1.09;9.04;30.71;0.87
2.50;-0.54;2.72;-1.52;-21.67;0.11
3.27;1.09;-1.31;-3.92;-2.29;-5.55
1.74;-4.57;-2.07;-4.68;-7.19;0.11
2.50;4.25;-1.31;-3.92;-8.82;-2.29
10.56;5.12;14.81;-1.52;-5.55;-0.76
-4.79;-1.31;-1.31;-1.52;-8.82;-0.76
-6.32;-0.54;15.57;-2.29;3.27;25.05
-2.29;-9.37;7.51;0.11;0.87;5.77
-6.32;1.09;-1.31;3.38;0.11;-10.35
-5.55;-5.34;0.33;-1.52;-3.16;-14.37
5.77;-2.18;2.72;1.74;4.90;-11.22
4.90;-6.97;1.09;0.11;8.93;-6.32
8.93;-5.34;1.09;3.38;9.80;-2.29
7.30;-2.18;0.33;6.53;4.90;0.87
0.87;-2.94;2.72;-1.52;4.90;6.53
-0.76;2.72;1.09;0.11;9.80;15.35
8.93;1.09;12.41;2.50;6.53;16.23
25.05;0.22;2.72;6.53;0.11;9.80
-20.04;-22.32;-1.31;2.50;-4.79;15.35
0.11;3.48;-9.37;3.38;-2.29;10.56
-8.82;-0.54;-1.31;6.53;4.90;-2.29
-2.29;-2.18;1.09;3.38;4.90;-10.35
0.87;2.72;-1.31;3.38;2.50;-14.37
-2.29;-0.54;-2.07;0.11;-3.16;-13.61
3.27;-15.90;-1.31;-5.55;-7.95;-8.82
11.33;5.12;-1.31;-11.11;-4.79;-2.29
4.14;-9.37;-2.07;-9.58;-8.82;-16.88
0.11;2.72;-1.31;-6.32;-7.19;15.35
-5.55;-3.81;-1.31;-2.29;-0.76;6.53
-0.76;-5.34;-1.31;-4.68;-16.01;10.56
-3.92;2.72;11.54;-1.52;-8.82;1.74
-4.79;-3.81;-0.54;-4.68;-9.58;-6.32
-4.79;-2.94;0.33;9.04;-8.82;-7.95
-3.92;2.72;1.09;11.43;-3.92;-10.35
3.27;1.09;5.99;10.56;-3.16;-28.86
1.74;-2.18;1.09;6.53;-7.19;-21.67
-9.58;-6.21;2.72;-23.20;5.77;-8.82
-3.92;-4.57;-2.07;-4.68;26.68;2.50
4.90;0.22;-0.54;-13.61;15.35;12.96
11.33;1.09;-8.60;-16.01;21.89;20.26
8.17;1.09;-1.31;-12.74;12.20;13.83
4.14;-2.94;-1.31;-10.35;-5.55;10.56
0.87;-4.57;-2.94;-11.98;-2.29;1.74
-2.29;-2.94;-2.07;-2.29;0.11;-3.92
-10.35;-0.54;-2.07;3.38;7.30;-7.19
-7.19;-5.34;-3.70;12.20;-3.92;1.74
-3.92;-4.57;-1.31;14.59;6.53;-11.22
-2.29;5.12;-1.31;10.56;4.90;-6.32
-4.79;30.82;-1.31;-10.35;2.50;-0.76
-1.52;0.22;-8.60;7.41;3.27;-8.82
-1.52;0.22;1.09;-0.65;-3.16;1.74
3.27;-0.54;-1.31;-1.52;-7.19;-2.29
-0.76;-5.34;-0.54;-1.52;-11.22;-1.52
-7.19;-4.57;-1.31;-4.68;-5.55;-2.29
-2.29;-4.57;-1.31;3.38;-11.98;1.74
-3.92;-6.21;-0.54;-1.52;-20.04;-9.58
-0.76;-3.81;8.39;-9.58;-20.04;-10.35
8.17;0.22;3.48;0.98;-40.95;-11.22
3.27;-2.94;-1.31;-8.71;-8.82;0.87
4.14;0.22;0.33;-7.08;-3.92;5.77
4.90;1.09;-8.60;-3.05;1.74;13.83
3.27;13.94;-1.31;2.50;8.93;12.20
2.50;3.48;-2.07;3.38;7.30;3.27
0.87;0.22;-2.07;6.53;4.90;4.14
3.27;3.48;-1.31;0.11;20.26;2.50
3.27;35.72;-1.31;-17.64;15.35;1.74
10.56;3.48;-1.31;2.50;12.20;3.27
-0.76;2.72;-1.31;0.11;5.77;4.14
-24.94;-2.94;1.09;28.31;4.14;4.14
1.74;3.48;-1.31;-1.52;3.27;4.14
-5.55;-2.94;0.33;0.11;4.90;0.87
-7.95;1.09;-1.31;-7.08;6.53;1.74
-7.95;-3.81;-1.31;5.77;4.14;-23.30
3.27;0.22;1.09;-2.29;0.11;-3.92
3.27;1.85;3.48;16.23;-15.25;-8.82
3.27;2.72;1.96;1.74;-20.91;8.93
3.27;-2.18;1.96;-2.29;-23.30;-7.95
-1.52;3.48;12.41;1.74;-20.91;-8.82
1.74;-6.97;-1.31;6.53;-16.01;-7.19
1.74;-3.81;-0.54;11.43;-3.92;-9.58
-4.79;-4.57;-0.54;9.80;9.80;-1.52
-1.52;-2.94;-1.31;5.01;-4.79;0.11
-3.16;0.22;10.78;-3.05;20.26;-16.88
1.74;0.22;-1.31;-11.98;17.86;2.50
2.50;1.85;-0.54;-25.70;13.83;4.14
3.27;0.22;-1.31;-15.14;6.53;12.20
4.90;1.09;-0.54;-8.71;3.27;5.77
0.11;-8.60;0.33;-2.29;-3.92;7.30
-1.52;-2.94;4.36;-2.29;-11.98;4.14
-7.95;-11.00;-0.54;-2.29;-16.01;9.80
-1.52;-0.54;1.09;-11.11;-16.88;4.14
-7.19;4.25;-1.31;1.74;-9.58;-6.32
3.27;0.22;1.96;9.80;0.11;-9.58
46.83;2.72;2.72;6.53;4.90;1.74
12.20;1.09;3.48;-20.80;5.77;-7.19
-11.22;-2.18;2.72;8.17;10.56;-10.35
0.87;23.63;-1.31;-1.52;7.30;-11.98
-1.52;-2.94;-1.31;-1.52;10.56;-10.35
-5.55;-0.54;-15.03;2.50;16.23;-28.86
-8.82;-2.94;-1.31;36.37;17.86;2.50
-5.55;2.72;-1.31;1.74;16.23;12.96
-4.79;4.25;-1.31;-1.52;13.83;5.77
-2.29;0.22;-2.07;14.59;18.62;6.53
16.99;5.12;-2.07;-2.29;-7.95;1.74
1.74;1.09;-2.94;1.74;-13.61;4.14
2.50;-2.94;-1.31;-3.05;-19.28;27.44
-5.55;-2.94;-1.31;-2.29;-20.91;-9.58
-27.33;-3.81;0.33;-1.52;-21.67;-9.58
0.11;1.09;-2.94;-3.05;-17.64;-7.19
1.74;-0.54;-1.31;-6.32;-11.98;-7.19
3.27;-0.54;-1.31;-7.08;-2.29;-5.55
4.14;1.09;1.09;-6.32;2.50;0.87
-4.79;-18.30;-1.31;-3.92;7.30;2.50
3.27;20.36;-0.54;-1.52;8.93;-5.55
-4.79;-5.34;-0.54;-1.52;33.11;0.87
-5.55;-10.24;2.72;-2.29;23.41;1.74
-7.95;-7.84;25.26;-1.52;13.83;1.74
-4.79;-3.81;2.72;1.74;0.87;3.27
-1.52;-3.81;2.72;22.65;-25.70;1.74
-10.35;-22.32;-1.31;0.11;0.87;1.74
3.27;0.22;-5.34;6.53;4.90;3.27
4.14;5.12;-0.54;9.04;-7.95;3.27
5.77;4.25;-2.07;5.01;-18.40;1.74
1.74;-0.54;-3.70;5.01;-26.46;-5.55
0.87;-3.81;-1.31;-3.92;-7.95;-3.16
1.74;2.72;0.33;-3.92;-20.04;0.11
7.30;-2.18;-18.19;-3.92;1.74;3.27
5.77;-2.94;-1.31;-6.32;4.90;-7.19
5.77;-2.18;-3.70;-7.08;4.90;1.74
12.20;-2.18;-1.31;-13.61;12.20;1.74
-0.76;-0.54;0.33;-17.64;7.30;9.80
-0.76;4.25;18.84;2.50;12.20;0.87
0.11;0.22;2.72;5.77;9.80;-7.19
-10.35;-0.54;1.09;5.77;4.14;-22.43
-11.22;1.09;1.09;8.17;4.14;-11.98
-0.76;-10.24;1.09;3.38;0.87;9.80
2.50;0.22;10.02;3.38;0.11;1.74
1.74;0.22;1.09;9.80;0.87;1.74
3.27;-3.81;-1.31;8.17;-3.92;2.50
-1.52;1.09;-1.31;1.74;0.87;5.77
-25.70;0.22;-1.31;-4.68;-3.16;1.74
0.87;22.00;-6.10;-14.37;-2.29;-1.52
5.77;-0.54;-2.94;-16.01;-8.82;-5.55
-3.92;-13.39;-4.57;-20.04;0.11;1.74
1.74;1.09;-1.31;-12.74;4.14;1.74
2.50;-6.97;-4.57;-2.29;4.90;0.11
-5.55;-2.94;-0.54;-4.68;6.53;-2.29
-5.55;-2.94;-1.31;6.53;8.93;-11.22
-3.92;2.72;-1.31;10.56;6.53;-11.22
4.90;9.15;-0.54;2.50;3.27;-6.32
2.50;28.42;-1.31;10.56;2.50;-6.32
3.27;-0.54;-0.54;9.04;-2.29;-8.82
3.27;4.25;0.33;3.38;-5.55;6.53
4.14;0.22;8.39;5.77;-8.82;7.30
7.30;-5.34;2.72;2.50;-10.35;16.23
-26.46;-3.81;-0.54;1.74;-8.82;23.41
-2.29;1.09;-2.07;-0.65;-3.92;13.83
-2.29;-6.97;-1.31;-14.37;15.35;2.50
-8.82;30.82;-1.31;-1.52;7.30;-6.32
-2.29;-2.18;-2.07;1.74;7.30;-27.33
-3.92;-1.31;-1.31;-1.52;6.53;-24.07
1.74;1.09;-2.07;36.37;13.83;-13.61
-0.76;2.72;-2.07;-0.65;4.90;-16.01
-1.52;5.12;-1.31;0.11;-2.29;-10.35
3.27;1.85;2.72;1.74;0.87;-0.76
-2.29;1.09;-2.94;9.04;4.90;32.34
-0.76;-0.54;10.78;0.11;4.90;15.35
3.27;0.22;-1.31;5.01;2.50;16.23
8.17;1.09;-1.31;-25.70;-5.55;12.96
4.90;30.82;0.33;13.07;4.14;10.56
-37.79;-2.18;-1.31;-7.95;4.90;4.14
-0.76;5.88;-1.31;-7.95;-0.76;-2.29
-5.55;-3.81;-0.54;-2.29;4.14;12.20
-3.92;-10.24;2.72;-15.14;12.20;0.87
-3.92;-2.18;30.93;9.04;12.20;-2.29
-12.85;-2.18;0.33;10.56;13.83;0.87
-7.95;-2.18;3.48;1.74;-2.29;-1.52
-7.19;-1.31;-1.31;-13.61;-11.22;0.11
20.26;-2.94;3.48;-9.58;-13.61;-2.29
29.95;-2.18;-1.31;-28.86;-23.30;-3.92
5.77;1.85;-1.31;-10.35;-29.73;0.11
5.77;0.22;-11.76;-13.61;-31.36;-7.19
4.90;-6.97;-2.07;-9.58;-25.70;12.20
0.87;1.09;-1.31;-3.05;0.87;1.74
3.27;1.09;-1.31;0.98;4.90;0.11
-2.29;-3.81;-5.34;1.74;7.30;0.87
0.87;-2.18;-1.31;9.04;16.99;7.30
-2.29;-2.18;-1.31;13.07;4.90;1.74
3.27;9.91;1.09;-3.05;4.14;1.74
14.59;-2.18;2.72;5.01;4.90;0.87
4.90;5.12;0.33;-2.29;20.26;18.62
-1.52;-3.81;-1.31;0.11;21.89;2.50
-7.95;-2.18;-0.54;0.98;19.38;-3.16
-7.95;-0.54;-1.31;0.11;6.53;-0.76
-14.37;-2.94;2.72;-2.29;4.90;0.11
-11.98;-2.18;2.72;-0.65;-5.55;0.11
-3.92;-0.54;4.36;12.20;2.50;1.74
8.17;-7.84;1.09;-2.29;-15.25;2.50
4.14;-2.18;-0.54;11.43;-18.40;1.74
3.27;-2.18;-24.72;0.11;-20.91;0.87
-2.29;1.09;-1.31;0.98;-7.95;-2.29
3.27;-21.45;-2.07;3.38;2.50;1.74
-14.37;0.22;-2.07;-1.52;6.53;1.74
3.27;0.22;10.78;0.98;13.83;1.74
-1.52;-6.21;-1.31;-3.05;4.90;0.87
-13.61;3.48;-2.07;-7.95;4.90;-3.16
2.50;1.09;-3.70;-26.46;2.50;-0.76
3.27;4.25;-1.31;-1.52;-9.58;20.26
0.87;-4.57;-1.31;0.11;-7.95;-6.32
1.74;-2.18;-1.31;2.50;4.90;-2.29
0.87;-7.84;-1.31;2.50;7.30;1.74
3.27;-32.78;-2.07;1.74;2.50;-23.30
-1.52;-3.81;-0.54;-3.05;-24.07;-20.04
-1.52;0.22;2.72;-2.29;-6.32;-7.95
-3.16;-0.54;1.09;17.86;-5.55;2.50
-22.43;0.22;4.36;-6.32;-7.19;16.99
2.50;2.72;2.72;-1.52;-6.32;17.86
0.87;-2.18;-0.54;-0.65;-2.29;12.96
-1.52;-2.18;-2.07;-32.13;0.11;12.20
2.50;30.82;-0.54;6.53;4.14;7.30
-3.92;2.72;-6.10;0.11;4.90;5.77
3.27;-6.21;22.00;10.56;7.30;1.74
3.27;-0.54;-1.31;10.56;16.23;-10.35
8.93;-21.45;-1.31;8.17;7.30;-6.32
-0.76;15.57;-1.31;2.50;7.30;-4.79
1.74;2.72;-3.70;3.38;13.83;20.26
3.27;13.94;-1.31;18.62;8.93;1.74
4.14;5.12;-2.07;-5.55;4.90;9.80
3.27;4.25;-1.31;-4.68;2.50;0.87
-7.95;-4.57;1.09;-0.65;-5.55;-5.55
-5.55;6.64;-0.54;17.86;-15.25;-3.16
-4.79;-2.18;1.09;-1.52;-4.79;-6.32
-5.55;-3.81;1.96;1.74;-3.16;0.87
3.27;0.22;1.96;3.38;-5.55;0.87
-0.76;5.12;0.33;5.01;-6.32;-3.92
-1.52;-3.81;0.33;2.50;-7.19;-5.55
-4.79;-5.34;2.72;-16.01;-7.95;1.74
-0.76;0.22;1.09;9.04;-0.76;7.30
3.27;1.09;0.33;10.56;1.74;12.20
2.50;-9.37;0.33;5.77;3.27;13.83
-3.92;1.09;-1.31;-5.55;0.11;5.77
2.50;3.48;-1.31;-9.58;-3.16;1.74
-0.76;1.09;-0.54;-16.01;-3.92;-3.16
-0.76;-6.21;-2.07;-14.37;0.11;-3.92
3.27;-0.54;-6.97;-2.29;-0.76;-7.95
5.77;-2.18;-1.31;-26.46;0.11;1.74
-22.43;2.72;-1.31;0.11;-5.55;0.11
0.87;-2.18;-1.31;-0.65;-5.55;-7.19
-4.79;-0.54;-1.31;6.53;5.77;6.53
3.27;-4.57;-3.70;-3.05;7.30;-0.76
1.74;-2.18;-0.54;22.65;12.20;-0.76
0.87;-19.93;2.72;5.77;16.23;-3.16
-3.92;4.25;2.72;10.56;20.26;-3.16
-6.32;1.85;1.09;-11.98;21.02;-3.92
0.11;3.48;3.48;-3.05;9.80;15.35
16.99;-2.94;5.99;-2.29;2.50;-3.92
-4.79;-2.18;-0.54;13.07;-15.25;-3.92
-2.29;-2.18;13.94;0.11;-20.04;-0.76
3.27;0.22;0.33;-2.29;-24.07;0.11
3.27;3.48;-1.31;-4.68;-46.61;4.14
-1.52;-3.81;-1.31;-6.32;-29.73;-6.32
-4.79;-5.34;-1.31;-4.68;-23.30;-7.19
1.74;0.22;-2.07;6.53;-20.04;-5.55
3.27;1.85;-1.31;-28.10;-3.92;0.87
-1.52;4.25;-2.07;3.38;16.99;0.87
0.87;-6.21;-1.31;6.53;4.90;-7.19
-0.76;4.25;-0.54;5.01;8.93;-3.16
8.93;-12.63;0.33;1.74;10.56;1.74
3.27;1.09;-0.54;39.64;14.59;2.50
4.14;2.72;-1.31;10.56;29.95;1.74
-2.29;-6.97;-4.57;9.04;23.41;4.14
1.74;-2.94;-1.31;-3.92;20.26;8.93
0.87;1.09;-1.31;-0.65;30.71;12.96
-0.76;2.72;-1.31;-7.95;18.62;30.71
-0.76;-2.18;3.48;-7.08;20.26;25.05
-24.07;4.25;3.48;-7.08;24.28;9.80
-0.76;-2.18;1.09;0.11;14.59;0.87
4.14;-20.69;1.09;-2.29;3.27;-4.79
-2.29;-6.21;-2.07;-6.32;-11.22;-11.22
4.90;0.22;-1.31;-34.52;-21.67;-10.35
8.17;2.72;1.09;-0.65;-33.76;-11.98
-7.95;22.00;-1.31;4.14;-40.95;-11.22
2.50;0.22;-2.07;-1.52;-33.76;-5.55
0.87;3.48;-2.07;-0.65;-22.43;-2.29
-24.94;0.22;-2.07;-0.65;-20.04;-6.32
-1.52;-15.90;-1.31;0.11;-16.01;1.74
-8.82;-18.30;-2.07;-7.08;-2.29;0.87
-8.82;-3.81;-1.31;-0.65;4.90;-2.29
-1.52;-3.81;-5.34;3.38;15.35;-12.85
5.77;4.25;-1.31;3.38;18.62;-6.32
0.11;1.85;-1.31;-2.29;16.99;-3.16
-2.29;2.72;8.39;-0.65;13.83;0.87
3.27;-2.18;-1.31;-11.11;6.53;-0.76
3.27;5.12;0.33;-0.65;15.35;-2.29
0.87;-7.84;1.09;-1.52;5.77;9.80
3.27;2.72;16.44;0.11;9.80;20.26
3.27;1.09;4.36;-3.05;9.80;29.95
0.87;0.22;2.72;0.98;2.50;20.26
-4.79;-2.94;-0.54;0.11;0.11;15.35
-0.76;1.09;-0.54;-1.52;-3.16;3.27
0.87;5.12;-3.70;2.50;-3.92;-20.04
3.27;0.22;-2.94;-1.52;-10.35;-8.82
-0.76;-2.94;-2.07;-6.32;-13.61;-15.25
0.87;-19.06;-2.07;9.80;-8.82;-8.82
2.50;0.22;-0.54;-3.05;0.87;-28.10
3.27;4.25;5.12;0.11;4.90;-5.55
2.50;2.72;-1.31;-3.05;2.50;-11.98
-2.29;-0.54;-1.31;-2.29;-0.76;-8.82
3.27;-2.94;-2.07;11.43;-2.29;-3.16
3.27;19.60;-1.31;3.38;4.90;-3.92
3.27;5.12;13.18;-0.65;10.56;-5.55
-5.55;0.22;-0.54;-0.65;0.87;-5.55
2.50;-3.81;1.09;-0.65;0.87;-6.32
3.27;-2.18;1.96;2.50;4.90;-8.82
15.35;-2.18;-0.54;5.01;12.20;-3.92
-3.92;-0.54;3.48;9.80;16.99;1.74
-4.79;-2.94;12.41;7.41;8.17;3.27
13.83;-2.18;4.36;-1.52;0.87;-5.55
3.27;-2.18;1.09;-3.05;12.20;1.74
-2.29;0.22;-6.10;-7.08;-3.16;4.14
3.27;-2.94;-1.31;-3.05;-2.29;0.87
3.27;-2.18;-1.31;-4.68;0.87;2.50
-1.52;3.48;-1.31;-1.52;-2.29;-0.76
-7.19;0.22;-4.57;6.53;-6.32;2.50
0.87;-6.21;-4.57;3.38;-3.16;1.74
-2.29;-6.21;-4.57;-12.74;-2.29;-2.29
2.50;-0.54;-1.31;-2.29;4.90;-3.16
1.74;4.25;-2.07;-3.05;11.33;1.74
2.50;-23.09;-1.31;-9.58;6.53;-12.85
0.87;1.09;-1.31;-7.08;4.90;-1.52
3.27;5.12;1.09;-2.29;-11.98;1.74
5.77;1.09;-1.31;-11.11;-18.40;1.74
0.87;-27.99;-1.31;-0.65;-20.04;3.27
-3.92;-2.94;0.33;-24.83;-21.67;2.50
-3.92;-0.54;-21.45;2.50;-18.40;-3.92
-5.55;-6.21;-1.31;-1.52;-20.04;6.53
-8.82;1.09;0.33;2.50;-17.64;10.56
-2.29;-2.18;-1.31;-1.52;-5.55;1.74
-32.89;2.72;1.09;0.11;4.90;0.87
3.27;3.48;3.48;0.11;4.90;-5.55
0.87;-0.54;-1.31;-6.32;2.50;-10.35
1.74;-2.18;-1.31;3.38;9.80;-5.55
-0.76;-3.81;-3.70;15.46;14.59;0.11
3.27;-2.94;-1.31;9.80;17.86;5.77
29.95;1.09;-0.54;5.77;43.56;7.30
2.50;1.09;1.09;-0.65;8.93;3.27
3.27;-2.18;-2.07;3.38;4.90;-5.55
-3.92;3.48;-1.31;1.74;4.90;-7.95
-2.29;1.09;-2.07;0.11;-6.32;-2.29
0.11;-3.81;-0.54;5.01;-5.55;0.11
2.50;-2.94;-0.54;34.74;-3.92;-0.76
-0.76;-7.84;1.09;1.74;0.11;-0.76
2.50;-2.18;1.09;-4.68;4.90;1.74
11.33;-5.34;3.48;-0.65;10.56;13.83
8.93;3.48;-1.31;0.11;9.80;3.27
3.27;3.48;2.72;-0.65;16.23;1.74
-7.19;1.09;2.72;10.56;12.96;-18.40
-0.76;-24.72;4.36;14.59;10.56;0.11
-5.55;-2.94;-1.31;10.56;4.14;-35.39
0.87;-0.54;-0.54;-24.07;0.87;-14.37
0.87;-34.41;-1.31;-9.58;-8.82;-11.22
3.27;-3.81;-2.07;12.20;-16.88;-12.85
2.50;1.09;-5.34;-14.37;-7.19;-9.58
0.11;1.85;-21.45;-11.98;-13.61;1.74
-7.19;0.22;-1.31;3.38;-8.82;4.14
0.87;30.82;0.33;5.01;-5.55;15.35
4.90;2.72;-0.54;2.50;-6.32;10.56
3.27;1.09;-0.54;-7.08;-1.52;18.62
7.30;-1.31;-2.94;17.86;-2.29;16.23
4.90;-3.81;-1.31;-3.05;-17.64;1.74
3.27;-2.94;-1.31;-6.32;-7.19;-2.29
3.27;-6.21;1.09;-1.52;4.14;15.35
3.27;-3.81;0.33;-0.65;7.30;-9.58
-1.52;-5.34;0.33;3.38;0.87;-2.29
0.87;-6.97;5.99;1.74;9.80;0.87
-2.29;-10.24;3.48;1.74;4.90;-3.92
-14.37;-3.81;0.33;9.04;5.77;-44.21
-20.04;-2.18;2.72;24.28;16.99;-14.37
-11.22;4.25;-0.54;-3.05;0.11;-7.19
-8.82;-0.54;-1.31;12.20;0.87;-0.76
-3.92;2.72;-1.31;1.74;-4.79;9.80
0.87;1.09;-2.07;6.53;0.11;10.56
3.27;3.48;-2.07;-23.20;-5.55;13.83
10.56;-2.18;-1.31;-1.52;-8.82;2.50
4.90;0.22;-2.94;-5.55;-8.82;0.87
8.93;1.85;-11.76;-0.65;-8.82;-7.95
0.11;-2.18;-1.31;-1.52;-0.76;-5.55
-2.29;9.15;-0.54;-11.11;4.14;-7.19
0.11;0.22;0.33;2.50;2.50;4.14
3.27;1.09;-1.31;-29.73;8.93;-9.58
-1.52;4.25;2.72;-26.46;12.96;-3.92
0.87;0.22;2.72;2.50;18.62;-3.92
16.23;4.25;2.72;3.38;18.62;-2.29
4.90;26.79;3.48;1.74;19.38;5.77
-2.29;-2.18;-1.31;6.53;2.50;4.90
-0.76;2.72;2.72;6.53;25.05;2.50
-4.79;-2.94;4.36;1.74;33.11;-3.16
-5.55;1.09;1.09;10.56;18.62;-10.35
-3.92;2.72;-1.31;-0.65;4.90;0.87
-0.76;-10.24;-0.54;-0.65;-11.98;0.11
0.87;1.09;-0.54;-15.14;-24.94;0.87
0.87;3.48;-1.31;-6.32;-38.55;-2.29
-6.32;0.22;-5.34;-7.95;-37.79;29.08
-1.52;-2.18;-3.70;-4.68;-31.36;5.77
3.27;1.09;-11.76;-7.08;-26.46;-9.58
2.50;-4.57;-5.34;-4.68;-20.04;1.74
6.53;3.48;-2.94;-4.68;0.11;4.14
-0.76;-2.18;-10.13;-0.65;5.77;-23.30
3.27;-17.42;1.96;-3.92;8.93;1.74
21.89;0.22;-1.31;5.77;4.14;14.59
-1.52;-2.18;0.33;-2.29;4.90;-5.55
-7.19;-3.81;5.99;0.11;4.90;7.30
-22.43;-2.94;-0.54;-2.29;10.56;-2.29
-5.55;-2.94;2.72;10.56;-11.22;0.87
-0.76;-6.97;16.44;5.77;10.56;25.92
-1.52;0.22;1.96;7.41;4.90;1.74
0.87;1.09;-1.31;10.56;4.90;10.56
0.87;1.09;1.09;6.53;8.93;-7.19
17.86;2.72;-1.31;14.59;10.56;-9.58
2.50;1.09;-5.34;6.53;8.93;-0.76
0.87;-6.97;-0.54;3.38;4.90;-3.92
1.74;3.48;-1.31;-3.05;-7.95;-5.55
0.11;5.12;-1.31;-2.29;-9.58;-5.55
3.27;0.22;-2.94;-9.58;-11.98;0.11
0.87;1.09;-1.31;-7.08;-10.35;-7.19
0.87;-2.94;-2.94;-15.14;-8.82;-3.16
2.50;-8.60;-1.31;-3.05;4.90;1.74
2.50;-5.34;-18.19;4.14;15.35;0.11
3.27;0.22;1.09;-1.52;18.62;1.74
3.27;-2.18;-1.31;2.50;8.17;0.87
0.87;-3.81;0.33;-6.32;3.27;1.74
-3.92;-3.81;0.33;2.50;-3.92;-6.32
0.11;5.12;-0.54;-6.32;-10.35;-5.55
-4.79;-1.31;2.72;-3.92;-7.19;0.87
-7.95;-3.81;1.09;-3.05;-0.76;6.53
2.50;0.22;4.36;16.23;21.89;4.90
3.27;-2.18;1.09;0.11;8.93;17.86
7.30;1.09;4.36;0.98;8.93;16.99
3.27;1.85;1.09;2.50;3.27;12.20
-1.52;1.85;-0.54;-0.65;2.50;-6.32
0.87;-4.57;14.81;1.74;-5.55;6.53
3.27;2.72;-4.57;-0.65;-6.32;3.27
3.27;5.12;-1.31;1.74;-7.19;-6.32
-23.30;5.12;-1.31;-12.74;-20.91;-12.85
8.17;-25.48;-2.94;3.38;-3.16;-15.25
-2.29;1.09;0.33;2.50;4.90;-8.82
16.23;-2.18;-1.31;2.50;5.77;-3.16
3.27;-2.94;-1.31;-1.52;10.56;-8.82
-7.19;5.12;-1.31;-2.29;7.30;-5.55
0.87;3.48;0.33;0.11;4.90;-3.16
-0.76;3.48;0.33;-2.29;0.87;0.87
8.93;-2.18;-2.07;-2.29;-2.29;0.11
8.17;0.22;0.33;-1.52;-20.91;-3.92
18.62;-25.48;2.72;5.77;-10.35;1.74
0.11;1.09;4.36;5.01;-5.55;0.87
-1.52;0.22;9.15;9.80;-6.32;3.27
-2.29;1.09;5.99;5.01;-2.29;5.77
-8.82;1.09;6.75;2.50;9.80;14.59
0.87;1.85;0.33;-12.74;0.11;3.27
0.87;-0.54;-1.31;-19.17;2.50;-11.22
0.87;2.72;-2.94;-13.61;4.14;-24.07
-1.52;3.48;-1.31;6.53;6.53;-11.22
0.87;0.22;-11.00;5.77;4.90;-10.35
0.87;2.72;-2.07;2.50;4.90;1.74
2.50;1.09;-2.94;-3.05;4.90;7.30
3.27;-4.57;-16.66;-2.29;4.90;10.56
6.53;1.09;-1.31;-5.55;10.56;8.93
5.77;-2.18;-3.70;-3.05;21.89;8.93
11.33;28.42;-1.31;-19.17;15.35;1.74
8.93;5.12;-1.31;-2.29;4.90;0.11
3.27;-2.18;-0.54;0.11;0.11;0.87
-2.29;3.48;-1.31;0.11;-10.35;0.87
-7.95;0.22;-1.31;6.53;-21.67;-3.16
-21.67;-2.18;2.72;6.53;-24.94;-2.29
-22.43;5.12;2.72;0.11;-26.46;-5.55
-16.01;-2.18;0.33;0.11;-5.55;-2.29
-7.19;-2.94;0.33;-2.29;-16.88;-1.52
-3.92;0.22;-0.54;-2.29;0.87;-3.16
2.50;1.85;-5.34;-4.68;4.90;4.14
3.27;2.72;-27.12;-1.52;4.90;1.74
8.17;-2.18;-1.31;-0.65;10.56;-0.76
-16.01;20.36;-1.31;32.34;12.96;-0.76
-29.73;-3.81;-5.34;2.50;10.56;-3.92
15.35;-8.60;-2.07;3.38;8.93;-7.19
24.28;-13.39;1.09;2.50;16.99;1.74
3.27;-2.18;-1.31;1.74;28.31;1.74
2.50;-0.54;-2.07;-1.52;30.71;-6.32
6.53;1.09;-13.39;1.74;21.89;7.30
1.74;-2.18;-2.07;0.98;5.77;2.50
1.74;0.22;17.21;2.50;-12.85;1.74
8.93;-6.21;-1.31;-1.52;-29.73;-3.16
2.50;-5.34;-1.31;-6.32;-44.98;-5.55
-4.79;2.72;-8.60;0.11;-44.98;2.50
0.87;1.09;5.99;-3.05;-37.79;5.77
2.50;19.60;1.09;-3.92;-24.07;2.50
-3.92;-6.97;4.36;-2.29;-3.92;4.14
-7.19;-2.18;4.36;-1.52;12.20;-5.55
-16.88;-5.34;1.09;0.98;15.35;-11.22
-1.52;3.48;-1.31;16.23;22.65;-4.79
-7.19;3.48;-9.37;0.11;16.23;22.65
-5.55;-0.54;-2.94;6.53;19.38;3.27
0.87;2.72;-1.31;-0.65;0.87;8.93
0.11;-2.18;-8.60;-0.65;8.93;5.77
-3.92;-3.81;-3.70;-3.05;-2.29;3.27
-3.16;-7.84;-2.94;-3.05;-3.92;1.74
-0.76;-2.18;1.09;2.50;0.11;1.74
8.17;-0.54;-1.31;-3.05;-3.16;2.50
4.90;27.66;-1.31;-2.29;4.14;0.87
0.87;30.82;-1.31;5.77;0.11;-7.19
-0.76;-4.57;-0.54;-2.29;-1.52;-8.82
-5.55;0.22;-1.31;-2.29;4.14;-11.22
-2.29;0.22;0.33;6.53;2.50;20.26
-10.35;-2.18;16.44;6.53;-2.29;27.44
4.90;0.22;5.12;-0.65;-3.92;3.27
1.74;-16.66;6.75;-3.05;4.90;-8.82
0.87;-0.54;3.48;-3.92;0.87;-10.35
-21.67;-0.54;5.99;-6.32;0.87;-7.19
-7.19;-2.94;1.09;-4.68;5.77;-3.16
2.50;5.88;-1.31;18.62;15.35;-1.52
0.87;-2.18;-27.12;-0.65;8.17;2.50
1.74;22.76;-1.31;3.38;5.77;5.77
0.11;0.22;-1.31;4.14;4.14;-13.61
2.50;1.09;-5.34;2.50;0.11;6.53
1.74;-3.81;-1.31;-0.65;-7.95;9.80
-1.52;-2.94;-2.07;-16.77;-15.25;12.20
2.50;1.85;-1.31;-2.29;-18.40;13.83
-8.82;-3.81;-2.07;-2.29;-16.88;2.50
0.87;-5.34;-1.31;-5.55;-27.33;1.74
3.27;3.48;-1.31;16.23;1.74;-3.16
3.27;-2.94;-1.31;1.74;9.80;-8.82
3.27;-2.94;0.33;-5.55;7.30;-11.22
0.87;0.22;-0.54;3.38;7.30;-10.35
-5.55;2.72;10.02;0.11;4.90;-5.55
-6.32;-23.09;1.09;3.38;2.50;-7.19
-4.79;-2.18;2.72;-2.29;0.11;-11.22
-4.79;-0.54;1.09;-2.29;-24.94;-5.55
-3.16;1.09;5.99;-0.65;-3.16;11.33
2.50;-1.31;1.09;-5.55;-7.19;4.14
3.27;6.64;-1.31;-3.92;4.90;2.50
3.27;1.09;7.51;-4.68;-4.79;3.27
2.50;0.22;-1.31;-3.05;4.90;4.14
-0.76;0.22;-2.07;-2.29;4.90;1.74
2.50;-2.18;-1.31;-2.29;4.14;4.14
-10.35;-7.84;-2.94;-2.29;4.90;0.11
-3.16;-2.18;-2.07;3.38;9.80;-9.58
2.50;-6.21;-1.31;9.80;29.95;-7.95
2.50;-2.18;0.33;11.43;30.71;1.74
-0.76;4.25;7.51;5.77;18.62;14.59
3.27;1.09;3.48;3.38;3.27;9.80
-4.79;3.48;-0.54;3.38;-9.58;7.30
-0.76;-2.18;1.09;-2.29;-13.61;-11.22
4.90;1.85;-1.31;2.50;-20.91;1.74
8.17;1.09;0.33;-3.92;-24.94;7.30
3.27;-2.94;1.09;-7.95;-24.94;13.83
-11.98;-5.34;2.72;-3.92;-15.25;-10.35
7.30;1.09;1.09;-3.05;-8.82;2.50
-5.55;-2.18;-0.54;-6.32;0.87;4.14
-7.95;-3.81;-0.54;-4.68;4.90;-0.76
