14.37;3.92;-1.85;11.00;-7.08;0.76
7.95;-1.74;-0.98;11.87;0.11;5.66
-9.80;-4.14;-0.98;11.87;5.77;3.16
3.92;-0.98;16.77;6.97;5.01;-8.06
-1.74;4.68;0.65;19.06;31.58;2.40
-10.67;-21.13;0.65;11.00;18.62;-0.87
-2.61;2.29;0.65;11.00;17.10;-5.66
-0.98;0.65;0.65;7.84;9.04;-1.63
-1.74;2.29;4.68;15.90;9.80;2.40
-1.74;-1.74;3.81;32.02;12.20;4.03
-9.04;-0.98;1.42;6.21;5.77;4.79
-13.07;-3.38;0.65;-2.72;5.01;3.16
-0.98;9.47;-0.98;7.84;9.04;6.43
0.65;3.92;1.42;-14.81;5.77;10.45
3.92;7.08;-0.98;-14.81;6.53;13.72
1.42;2.29;-0.98;-15.57;6.53;6.43
3.05;3.05;-5.01;-12.31;1.74;1.63
5.44;6.32;-5.88;-2.72;-3.92;-1.63
-0.11;1.52;-10.67;-1.85;-4.68;-8.93
2.29;-2.50;-5.01;-0.22;-7.08;-5.66
3.05;0.65;-0.98;-0.22;-6.32;1.63
3.05;6.32;-0.22;2.18;-11.98;-0.87
3.05;4.68;-0.22;-1.09;-7.95;1.63
3.05;-4.14;3.05;-9.15;-7.95;-0.00
-0.11;-1.74;4.68;-0.22;-10.35;-1.63
-0.98;-5.01;0.65;-26.90;-6.32;1.63
0.65;-5.77;6.21;-9.91;0.98;-4.90
1.42;-3.38;0.65;2.18;2.50;3.16
-4.14;-4.14;3.05;0.54;4.14;0.76
0.65;-29.95;2.18;3.81;11.43;-4.90
-1.74;-0.11;0.65;3.81;10.56;-7.30
-0.98;-1.74;-0.98;2.94;10.56;-3.27
0.65;0.65;-0.22;2.94;5.01;-0.00
-1.74;5.55;1.42;2.18;5.77;1.63
0.65;2.29;2.18;-1.85;18.62;-0.87
-2.61;-4.14;-0.98;-3.48;2.50;2.40
-1.74;0.65;-0.22;-8.28;-8.71;2.40
2.29;-2.50;-0.22;-4.25;-5.55;3.16
-2.61;2.29;-0.98;-0.22;-2.29;2.40
0.65;-2.50;-9.91;-0.22;0.98;1.63
0.65;0.65;-0.98;-5.12;-2.29;-11.33
-0.98;0.65;-0.98;0.54;-7.08;-6.43
3.05;-0.98;-1.85;9.37;5.77;1.63
3.05;-0.98;11.11;6.97;10.56;7.19
2.29;4.68;2.18;-1.09;5.01;-14.48
3.05;0.65;1.42;36.81;-0.65;11.22
2.29;-4.14;4.68;6.97;-2.29;-1.63
2.29;-2.50;7.84;6.21;-8.71;-3.27
3.05;4.68;3.05;8.60;0.11;-0.00
0.65;-1.74;6.21;2.94;-7.08;-8.93
26.46;3.92;3.81;-1.85;4.14;-4.90
-5.01;-5.01;-0.98;-7.51;5.01;1.63
-2.61;-5.77;-0.98;-1.85;5.01;10.45
0.65;2.29;-0.98;7.84;-3.92;13.72
0.65;30.49;-0.98;-3.48;-5.55;16.88
3.05;6.32;3.05;-2.72;1.74;11.22
-0.11;5.55;-0.98;-1.09;2.50;5.66
4.68;1.52;-9.04;-5.12;0.11;-2.40
6.32;7.08;-3.38;-1.85;2.50;-9.69
5.44;2.29;-8.28;-4.25;-3.05;-12.96
2.29;3.05;-12.31;0.54;-0.65;-9.69
-4.14;5.55;-0.98;-1.85;9.80;-10.45
-7.41;2.29;-0.98;2.94;9.80;-8.93
-2.61;6.32;-0.98;0.54;7.41;-14.48
3.05;6.32;1.42;3.81;6.53;4.79
2.29;1.52;0.65;6.97;13.83;4.79
0.65;2.29;-2.61;2.94;10.56;3.16
0.65;-5.01;3.81;9.37;10.56;10.45
3.05;-1.74;3.81;8.60;5.01;4.79
1.42;5.55;0.65;-1.85;-13.61;2.40
-33.21;3.92;-0.98;15.90;-18.40;-0.00
0.65;-0.98;3.05;32.78;-13.61;-4.90
-0.11;-5.77;2.18;-3.48;-16.01;-2.40
-1.74;-5.01;3.81;-4.25;-13.61;-10.45
3.92;-4.14;-5.88;-3.48;-16.01;-3.27
0.65;-0.98;1.42;-5.12;-3.05;-4.90
2.29;3.92;11.11;-4.25;3.38;-4.90
0.65;6.32;-0.98;-4.25;-3.05;-5.66
-4.14;0.65;-0.98;-9.15;-11.98;2.40
-11.43;2.29;-1.85;-2.72;-2.29;13.72
3.05;6.32;-0.98;-1.85;13.83;15.25
1.42;4.68;-0.98;6.97;13.07;12.09
3.05;1.52;-0.98;2.94;3.38;-15.35
-13.07;6.32;-0.22;2.18;7.41;1.63
0.65;3.92;3.81;8.60;9.80;-0.87
1.42;1.52;22.32;8.60;5.01;-4.90
3.92;-2.50;-0.22;11.87;-0.65;-5.66
-1.74;-0.98;3.05;12.63;3.38;-1.63
-0.98;-5.77;-11.43;11.87;9.04;-5.66
-5.01;-5.01;4.68;8.60;5.77;2.40
-5.01;-5.77;7.84;-9.15;5.01;2.40
-1.74;1.52;17.53;-13.18;5.77;-8.06
17.53;-4.14;-0.98;-5.88;4.14;2.40
2.29;-1.74;3.05;-14.81;-18.40;1.63
-1.74;-1.74;-0.22;0.54;-7.08;-1.63
0.65;8.71;0.65;2.18;-6.32;4.03
2.29;6.32;-5.01;0.54;-2.29;3.16
3.05;7.95;-3.38;-1.85;-0.65;16.88
3.05;7.08;-5.01;-9.15;-5.55;4.79
7.95;3.92;-5.88;-10.78;2.50;6.43
3.05;-4.14;-10.67;-12.31;3.38;7.19
2.29;1.52;-6.64;-1.85;-2.29;2.40
1.42;3.92;-0.98;-1.09;5.01;2.40
-0.11;0.65;-0.98;-0.22;4.14;2.40
2.29;0.65;-9.91;8.60;5.01;-27.44
3.05;-4.14;3.81;11.87;9.80;0.76
-3.38;-2.50;-6.64;21.45;13.07;2.40
-4.14;0.65;3.81;11.00;7.41;2.40
24.83;-4.14;3.05;47.26;5.77;0.76
-1.74;7.95;3.81;2.94;1.74;1.63
2.29;0.65;3.81;2.18;-5.55;-0.00
-4.14;-1.74;0.65;-3.48;-6.32;1.63
0.65;-0.98;-0.98;6.97;-5.55;-5.66
3.05;3.05;0.65;-9.15;-5.55;-5.66
1.42;4.68;-0.22;-12.31;-7.95;-5.66
-0.98;5.55;-0.98;-6.75;-7.95;18.51
-2.61;-1.74;-0.98;-5.12;-7.08;4.03
0.65;0.65;-2.61;-2.72;-7.08;-6.43
3.05;5.55;0.65;-0.22;-2.29;2.40
0.65;3.92;-26.79;-3.48;-3.92;0.76
3.92;3.92;-12.31;-3.48;-3.05;0.76
-24.28;3.92;-2.61;-31.69;6.53;-3.27
4.68;-2.50;-1.85;-1.09;3.38;11.22
0.65;6.32;1.42;0.54;6.53;-3.27
3.05;1.52;1.42;0.54;3.38;2.40
3.05;-2.50;-0.98;11.00;4.14;14.48
0.65;-4.14;4.68;-14.81;-15.14;0.76
1.42;-3.38;1.42;2.94;6.53;5.66
3.05;2.29;6.21;8.60;7.41;4.03
3.05;1.52;6.21;3.81;5.01;14.48
4.68;3.92;-0.98;-0.22;13.83;19.28
2.29;-0.11;3.81;2.18;9.04;8.06
-0.11;3.92;3.81;-0.22;5.01;0.76
-5.77;-2.50;7.84;-1.85;6.53;5.66
-1.74;-0.98;4.68;-1.85;5.77;-1.63
2.29;4.68;-5.01;6.21;5.77;-5.66
-5.77;-2.50;-0.98;-2.72;-12.74;-12.96
-4.14;0.65;-0.98;3.81;-5.55;-10.45
3.05;2.29;-1.85;-1.85;6.53;-0.00
-2.61;1.52;-5.01;-1.85;5.01;5.66
2.29;5.55;-0.98;1.31;-5.55;14.48
3.05;3.92;-0.98;-2.72;-12.74;13.72
3.05;4.68;-1.85;2.18;-20.80;10.45
3.05;2.29;14.27;-3.48;-21.56;4.03
3.05;1.52;-0.98;0.54;-24.83;-23.41
3.92;4.68;-0.98;-1.85;-20.04;-11.33
-1.74;-2.50;-0.22;0.54;-5.55;-14.48
-1.74;-6.53;3.05;-6.75;4.14;-11.33
1.42;6.32;0.65;11.00;10.56;-5.66
-0.98;-3.38;3.05;-4.25;13.07;-18.51
-0.98;-11.43;7.08;-26.03;-2.29;4.03
10.35;-5.01;2.18;-4.25;0.98;2.40
2.29;2.29;-0.98;-1.85;9.04;2.40
3.92;4.68;-0.98;2.18;0.98;-1.63
2.29;-0.98;-0.22;5.34;13.83;1.63
-0.11;2.29;-0.98;2.18;15.46;2.40
2.29;6.32;2.18;-2.72;12.20;5.66
1.42;4.68;-1.85;-0.22;9.80;9.69
3.05;4.68;-3.38;-15.57;5.01;10.45
-0.98;3.92;-3.38;0.54;0.98;4.79
-23.52;30.49;-0.98;10.24;7.41;4.03
1.42;2.29;-3.38;-1.09;-5.55;-4.90
-9.04;0.65;-0.22;0.54;-18.40;-11.33
1.42;3.05;-0.98;-0.22;-5.55;-12.96
3.05;2.29;1.42;2.94;-4.68;-0.00
8.71;-17.86;3.81;-1.85;5.01;-4.90
3.05;4.68;7.84;-1.85;10.56;-0.00
-22.76;-7.41;3.81;6.97;12.20;4.79
2.29;-2.50;3.81;6.97;10.56;20.15
-0.98;6.32;7.84;6.21;5.01;8.06
-7.41;-0.98;-0.98;3.81;5.77;5.66
-31.58;1.52;-0.22;-25.26;5.01;4.03
0.65;0.65;-0.22;-0.22;5.77;3.16
1.42;-1.74;-0.98;-0.22;1.74;28.21
2.29;15.14;1.42;19.93;-6.32;-5.66
-0.98;1.52;-0.22;13.39;-8.71;-4.90
-0.11;1.52;-0.98;8.60;-13.61;2.40
2.29;5.55;-0.22;-2.72;-12.74;-24.18
-0.11;6.32;-1.85;-9.91;-8.71;-31.47
-1.74;2.29;15.14;-12.31;-18.40;-14.48
0.65;2.29;-1.85;-14.81;-0.65;0.76
-7.41;-1.74;-2.61;-42.91;2.50;4.03
7.08;2.29;-2.61;-13.18;-18.40;11.22
8.71;-1.74;-0.98;-12.31;1.74;4.79
0.65;0.65;3.05;-13.94;0.11;2.40
-0.98;-5.77;3.05;-1.85;-2.29;2.40
1.42;-0.98;9.47;2.94;0.98;-0.00
-5.77;-0.98;0.65;11.00;5.77;-4.90
-0.98;-23.52;3.05;-1.09;6.53;2.40
-7.41;-1.74;4.68;8.60;9.80;-2.40
-5.01;15.14;4.68;32.78;0.98;2.40
15.14;2.29;3.05;11.00;4.14;2.40
0.65;26.46;3.81;13.39;16.23;4.79
0.65;-4.14;1.42;6.21;33.98;4.03
2.29;-4.14;3.81;0.54;12.20;5.66
3.05;2.29;-0.98;-1.09;10.56;2.40
0.65;5.55;-0.98;-5.88;-3.92;-0.00
-0.98;3.92;-0.98;-2.72;-19.17;-0.87
-4.14;4.68;-1.85;-1.09;-3.05;-2.40
-5.77;6.32;-2.61;0.54;-25.59;1.63
1.42;30.49;-2.61;-1.09;1.74;-2.40
-5.01;6.32;-0.98;-9.15;-5.55;-0.00
1.42;6.32;-0.98;-3.48;-0.65;-6.43
-22.76;10.35;-0.98;-14.81;1.74;-9.69
0.65;1.52;-13.07;-1.85;0.98;-8.06
1.42;32.89;-0.22;-1.09;2.50;-8.93
0.65;-3.38;3.05;0.54;5.01;-0.00
1.42;0.65;4.68;6.97;7.41;-14.48
2.29;-0.98;1.42;-1.85;7.41;-2.40
3.05;-5.01;20.80;11.00;5.77;19.28
-2.61;-26.68;4.68;3.81;0.98;3.16
0.65;-3.38;-5.88;2.94;-2.29;14.48
2.29;-9.04;1.42;3.81;2.50;10.45
2.29;-4.14;0.65;0.54;2.50;11.22
-0.11;0.65;3.05;-1.85;-8.71;2.40
-5.77;-2.50;-0.98;25.48;-11.98;-1.63
0.65;2.29;-0.98;-5.88;-12.74;-1.63
3.92;-14.59;-2.61;-5.88;-15.14;-1.63
-0.11;-0.98;-0.98;-4.25;-8.71;-8.93
3.05;5.55;-0.98;-1.85;-7.08;-10.45
1.42;6.32;-1.85;-1.85;-3.92;-23.41
1.42;-18.62;-0.98;-1.85;5.77;14.48
-1.74;6.32;-5.01;0.54;13.07;2.40
-2.61;6.32;-0.98;6.97;17.10;3.16
-0.11;0.65;2.18;3.81;9.80;3.16
3.05;1.52;1.42;6.97;5.77;4.03
2.29;-6.53;0.65;2.18;0.98;-3.27
-0.98;-3.38;24.83;-0.22;-3.05;-10.45
3.05;3.92;2.18;0.54;-7.95;2.40
0.65;-0.98;2.18;2.18;-7.08;-7.30
-7.41;-0.98;-0.22;3.81;0.98;1.63
3.05;2.29;-0.98;-1.85;0.98;4.79
-0.11;-2.50;1.42;-3.48;-0.65;9.69
1.42;-1.74;-0.98;11.00;2.50;6.43
-4.14;-4.14;24.83;-1.09;5.77;27.33
-29.95;-0.98;1.42;-3.48;6.53;6.43
0.65;5.55;23.20;-9.15;5.01;2.40
0.65;5.55;-5.01;-3.48;4.14;2.40
3.05;13.50;-2.61;-16.33;5.01;2.40
1.42;9.47;-4.25;-1.85;0.98;4.79
0.65;2.29;-0.98;0.54;-3.05;2.40
-21.13;-0.11;-1.85;3.81;-9.58;-10.45
17.53;3.92;1.42;6.97;-4.68;-5.66
3.05;14.37;-0.98;-4.25;-10.35;-10.45
3.05;0.65;1.42;-9.15;2.50;-10.45
1.42;-5.77;-21.89;-1.85;0.98;-2.40
1.42;3.92;-0.98;7.84;5.01;-3.27
2.29;-4.14;6.21;3.81;9.80;-5.66
0.65;-1.74;3.05;6.97;4.14;-4.90
-0.98;-6.53;4.68;-1.85;5.01;6.43
-0.98;31.25;3.81;2.18;25.92;5.66
3.05;-5.77;27.22;0.54;5.01;2.40
-2.61;2.29;3.05;0.54;5.77;-19.38
-4.14;-5.77;0.65;6.97;7.41;-2.40
0.65;-2.50;0.65;-0.22;13.07;-4.90
-5.77;-1.74;-1.85;-6.75;17.10;-8.93
-0.98;-10.56;-1.85;-6.75;21.89;-6.43
-1.74;1.52;-3.38;-5.88;9.80;-0.00
3.05;3.92;-8.28;1.31;0.98;28.97
-15.46;0.65;-6.64;-2.72;-10.35;16.88
3.05;2.29;-5.01;-2.72;-15.14;20.15
3.05;-19.49;-4.25;-1.85;-22.43;17.75
7.08;6.32;-17.10;11.00;-29.62;9.69
-0.11;3.92;-1.85;15.03;-20.80;4.79
3.05;3.05;1.42;11.00;-11.98;0.76
-5.01;6.32;11.87;0.54;-11.98;-6.43
-1.74;-2.50;0.65;-6.75;-5.55;-10.45
1.42;-9.04;4.68;10.24;5.01;-15.35
-5.77;-2.50;3.81;-13.94;17.10;-14.48
-5.01;-4.14;-18.73;-9.15;-3.05;-8.06
2.29;-5.01;4.68;-10.78;18.62;0.76
-2.61;-1.74;3.05;-4.25;3.38;2.40
3.05;2.29;1.42;-1.09;-3.05;-10.45
3.05;-0.98;23.20;2.18;-3.92;28.21
1.42;-0.98;-26.79;11.00;5.01;-10.45
-22.76;-28.31;-3.38;10.24;14.59;4.03
-0.98;1.52;-0.98;3.81;18.62;-0.00
0.65;2.29;-0.98;15.90;23.52;-1.63
-7.41;0.65;-0.98;13.39;28.31;-0.00
5.44;5.55;24.83;11.00;29.95;2.40
3.05;6.32;-3.38;1.31;23.52;-21.78
3.92;6.32;-5.01;2.18;20.26;2.40
3.05;2.29;-0.98;-1.85;3.38;-4.90
3.05;-7.41;-0.98;-13.18;-20.04;-5.66
-0.98;-3.38;3.05;-14.81;-26.46;-8.06
-0.98;-0.98;11.11;-5.12;-24.83;-3.27
0.65;-0.98;4.68;-1.09;-24.83;-16.12
-0.98;-0.11;0.65;-2.72;-29.62;-4.03
0.65;-6.53;-0.22;-2.72;-20.80;-1.63
-0.98;-4.14;7.84;-1.09;-13.61;-8.06
1.42;-4.14;0.65;-1.09;-10.35;2.40
-2.61;-29.19;-0.98;-0.22;0.98;6.43
34.52;19.17;-0.22;-26.90;5.01;8.06
-7.41;-26.68;0.65;-3.48;5.01;4.79
-1.74;1.52;-0.98;-1.85;15.46;3.16
1.42;4.68;-0.98;1.31;5.77;2.40
24.83;3.92;2.18;-4.25;7.41;2.40
3.05;-1.74;-0.98;-1.09;5.01;1.63
-0.98;2.29;-0.98;-1.85;-7.08;-8.06
3.05;6.32;12.74;-1.09;6.53;-2.40
-2.61;3.92;-3.38;1.31;0.11;-6.43
-0.98;3.92;-2.61;0.54;0.11;-2.40
3.05;5.55;-2.61;3.81;3.38;-1.63
25.59;5.55;-0.98;16.66;5.01;2.40
-2.61;-4.14;1.42;23.09;5.01;2.40
-2.61;-18.62;0.65;-0.22;5.01;-0.00
-2.61;-3.38;0.65;0.54;5.01;-1.63
-11.43;-3.38;1.42;-15.57;5.01;4.03
2.29;-2.50;3.81;-13.18;5.01;0.76
1.42;-6.53;1.42;3.81;5.01;0.76
0.65;-2.50;4.68;0.54;9.04;-1.63
-1.74;-1.74;2.18;5.34;5.01;0.76
2.29;-1.74;-0.98;-0.22;0.98;0.76
0.65;-0.98;-0.98;0.54;6.53;2.40
2.29;-1.74;1.42;-2.72;6.53;4.79
3.05;6.32;-0.98;-1.85;12.20;10.45
3.05;5.55;-0.98;-3.48;5.77;-23.41
2.29;4.68;-0.98;-6.75;3.38;-1.63
-2.61;4.68;-1.85;-36.48;0.11;2.40
-0.98;6.32;-0.98;-2.72;-4.68;-6.43
3.05;5.55;-0.98;-3.48;-10.35;-5.66
3.05;1.52;-0.98;6.97;-6.32;0.76
0.65;-6.53;1.42;10.24;4.14;1.63
-0.98;0.65;-0.98;8.60;0.11;1.63
-0.11;-2.50;-2.61;2.94;-11.98;1.63
-0.11;-5.01;3.05;2.94;-16.77;1.63
-0.11;-6.53;7.08;27.99;-8.71;-0.00
3.05;1.52;19.93;8.60;0.98;11.22
3.05;-3.38;5.44;2.94;5.01;2.40
3.05;-0.98;11.87;3.81;10.56;0.76
-0.98;-5.01;3.05;15.03;5.01;-9.69
0.65;2.29;-0.98;2.18;18.62;-10.45
1.42;-2.50;-1.85;-1.09;-11.98;-10.45
-4.14;-4.14;-0.98;-7.51;-3.92;-3.27
-5.77;-5.01;-1.85;-6.75;-5.55;1.63
2.29;-6.53;-5.01;-9.15;-3.05;10.45
0.65;0.65;-0.98;-5.12;-5.55;-7.30
-21.89;3.05;-9.91;32.78;-11.98;8.06
0.65;5.55;-4.25;-6.75;0.98;7.19
3.05;6.32;-2.61;-2.72;23.52;2.40
2.29;6.32;-0.98;-4.25;5.01;-3.27
16.01;1.52;-5.01;-9.15;5.01;-0.87
2.29;-5.77;-0.98;22.32;-4.68;1.63
2.29;2.29;-0.22;-14.81;-5.55;-0.00
-1.74;0.65;4.68;0.54;4.14;-18.51
4.68;3.05;2.18;6.97;5.01;2.40
-0.98;-0.98;36.05;6.97;-3.05;-4.90
-2.61;-3.38;4.68;9.37;-0.65;-9.69
0.65;-4.14;3.05;18.30;11.43;12.09
3.92;-3.38;6.21;19.93;15.46;2.40
-2.61;-4.14;3.05;12.63;7.41;18.51
-0.98;-9.04;3.81;-1.85;12.20;8.82
3.05;0.65;4.68;-1.09;6.53;9.69
0.65;-5.77;0.65;-14.81;-5.55;6.43
-0.98;-5.01;16.77;-13.94;-16.01;6.43
1.42;16.01;-2.61;-23.63;5.01;10.45
1.42;-15.46;-3.38;-14.81;-5.55;2.40
4.68;0.65;-2.61;8.60;-12.74;2.40
1.42;3.05;-7.41;-10.78;-24.83;-11.33
-0.11;-13.83;-5.88;-0.22;-20.80;-12.96
-5.77;-0.98;-8.28;-22.87;-9.58;-10.45
-0.11;0.65;-0.98;6.97;3.38;-4.90
-0.98;6.32;-0.22;-1.85;6.53;-1.63
-0.98;4.68;1.42;11.00;-2.29;-1.63
0.65;2.29;-0.22;0.54;2.50;-2.40
2.29;0.65;4.68;0.54;6.53;-1.63
2.29;-5.01;6.21;-0.22;19.49;-4.90
18.40;3.92;0.65;6.97;-2.29;-3.27
7.08;-2.50;2.18;11.00;5.01;1.63
3.05;-0.98;9.47;18.30;6.53;2.40
-0.98;-4.14;1.42;11.87;12.20;1.63
2.29;0.65;7.08;3.81;12.20;-4.03
3.05;0.65;-0.22;-5.12;9.04;2.40
3.05;2.29;-0.22;-14.81;0.11;3.16
1.42;-0.98;0.65;-14.81;0.11;1.63
-1.74;6.32;32.02;-14.81;-3.05;3.16
2.29;-0.98;-0.98;-12.31;-5.55;8.82
1.42;-2.50;-5.01;-14.81;-7.08;19.28
-13.83;3.92;-1.85;-1.85;-8.71;4.79
-0.98;3.92;-3.38;-13.94;-7.08;-1.63
3.05;-0.98;-0.98;6.97;-7.95;-8.06
-2.61;5.55;-3.38;8.60;-7.08;11.22
3.05;0.65;-2.61;11.00;0.98;12.85
-10.67;1.52;-0.98;6.21;5.01;-7.30
-1.74;4.68;-0.22;6.21;10.56;-9.69
-5.01;-0.11;3.05;6.97;15.46;2.40
-1.74;-2.50;7.08;8.60;9.80;2.40
-0.11;3.92;3.81;10.24;9.04;12.85
-22.76;26.46;3.05;10.24;10.56;19.28
7.08;4.68;3.05;0.54;3.38;-0.87
1.42;-4.14;-0.98;-3.48;3.38;-17.75
3.92;0.65;0.65;-4.25;4.14;22.54
5.44;-2.50;0.65;-1.09;5.01;-4.90
0.65;-0.98;0.65;-1.85;5.01;-13.72
0.65;5.55;-0.98;-3.48;0.98;-13.72
1.42;-1.74;1.42;-1.85;-2.29;-8.93
-2.61;5.55;-1.85;0.54;2.50;-0.87
-2.61;6.32;-0.98;-3.48;5.77;-4.90
0.65;5.55;-0.98;-3.48;4.14;-1.63
3.05;2.29;-11.43;-1.85;4.14;-0.00
3.05;6.32;-3.38;2.18;5.01;3.16
1.42;2.29;-0.98;2.18;-2.29;-0.00
1.42;4.68;-0.98;2.94;-15.14;6.43
1.42;-0.98;-0.98;0.54;-29.62;0.76
4.68;1.52;3.05;-1.85;-22.43;-3.27
2.29;-3.38;9.47;-3.48;-20.80;2.40
13.50;-8.17;0.65;27.12;-9.58;0.76
-0.98;-1.74;7.08;8.60;2.50;3.16
0.65;-33.98;7.08;6.97;5.01;-0.00
28.86;32.13;4.68;8.60;17.10;-1.63
16.01;-1.74;-0.98;-15.57;6.53;2.40
17.53;2.29;-0.22;3.81;9.80;-0.00
-4.14;-1.74;-8.28;2.94;10.56;6.43
-0.98;0.65;-0.22;-1.85;12.20;28.21
-20.26;2.29;-0.98;-20.36;9.04;4.79
3.05;3.92;-0.22;-3.48;4.14;16.12
26.46;2.29;-0.98;-2.72;8.17;2.40
2.29;-20.26;-0.98;-5.12;9.04;5.66
3.05;5.55;-6.64;-2.72;5.01;7.19
-21.89;3.92;-3.38;2.94;7.41;-1.63
3.05;4.68;-1.85;3.81;5.01;2.40
1.42;2.29;-2.61;-9.91;5.01;1.63
-11.43;5.55;-0.98;-27.66;-4.68;-4.90
2.29;-1.74;3.05;6.97;3.38;-6.43
-0.98;-0.98;11.11;2.18;-12.74;-4.90
16.77;-4.14;0.65;6.21;-7.08;-0.00
-1.74;3.92;1.42;3.81;-11.11;5.66
0.65;-1.74;-1.85;2.94;-7.95;3.16
0.65;1.52;2.18;2.94;-0.65;2.40
-1.74;-5.01;3.81;11.00;3.38;8.06
-0.98;-1.74;7.84;2.18;-2.29;4.79
-0.98;-0.98;10.24;-1.09;0.11;37.03
-4.14;1.52;-17.86;-3.48;-6.32;-0.87
1.42;-5.01;-0.98;-9.15;0.98;2.40
2.29;-11.43;-0.98;-13.18;5.01;0.76
3.05;2.29;-0.98;-4.25;6.53;-4.90
-22.76;3.05;-0.98;-10.78;4.14;-11.33
1.42;-9.04;-0.98;-5.88;0.98;-8.06
-1.74;-14.59;-0.22;-1.09;4.14;-0.87
2.29;6.32;-2.61;-1.09;2.50;1.63
3.92;3.05;-2.61;2.18;3.38;-15.35
-0.98;6.32;-5.01;0.54;0.98;1.63
-0.98;32.13;-0.98;15.03;0.11;1.63
2.29;2.29;-0.22;15.90;-3.92;2.40
1.42;1.52;1.42;11.00;0.98;-2.40
4.68;2.29;0.65;-4.25;-5.55;-0.87
0.65;-0.11;6.21;-8.28;-8.71;1.63
2.29;-19.49;4.68;-40.51;-5.55;2.40
3.05;-6.53;20.80;-14.81;5.01;3.16
0.65;-3.38;3.81;-9.15;5.01;4.03
-5.01;-2.50;3.05;-1.09;4.14;-0.00
-10.67;-29.95;-0.98;2.18;4.14;2.40
-2.61;0.65;3.05;3.81;6.53;12.85
2.29;7.08;-0.22;4.57;10.56;-1.63
-12.20;17.53;-0.22;-3.48;13.83;-2.40
0.65;17.53;-0.22;5.34;14.59;-1.63
2.29;-0.11;-14.70;5.34;8.17;6.43
-0.98;5.55;27.22;3.81;5.01;13.72
3.05;4.68;-3.38;-0.22;3.38;17.75
4.68;3.92;-2.61;-1.85;-2.29;6.43
3.05;6.32;-5.88;-2.72;-9.58;4.03
3.05;3.92;-3.38;-6.75;-21.56;12.09
3.05;-1.74;-4.25;-4.25;-23.20;-1.63
-1.74;0.65;-0.98;-9.91;-18.40;-13.72
1.42;-1.74;0.65;-5.88;0.98;8.82
3.05;-8.17;4.68;-0.22;5.01;-18.51
1.42;-6.53;7.84;1.31;5.77;-12.09
3.05;-1.74;1.42;6.21;5.01;-25.81
0.65;2.29;15.14;3.81;10.56;2.40
-2.61;15.14;-0.22;22.32;22.65;2.40
-4.14;-19.49;1.42;6.97;7.41;4.03
-4.14;-4.14;-0.98;-1.09;5.01;2.40
-0.11;1.52;3.05;0.54;3.38;3.16
1.42;6.32;-21.89;-4.25;5.01;-2.40
24.07;-0.98;3.05;-1.85;-7.08;-6.43
-22.76;0.65;-0.98;-9.91;-20.80;-1.63
4.68;6.32;-0.98;-6.75;-7.08;-4.03
3.05;2.29;-0.98;-3.48;-5.55;7.19
3.05;3.92;23.96;-0.22;-7.95;-9.69
0.65;4.68;-5.88;-1.85;1.74;-14.48
1.42;-0.98;3.05;4.57;9.04;2.40
3.05;1.52;-0.22;-1.85;13.07;-3.27
-1.74;2.29;-0.98;0.54;17.10;-0.87
3.05;0.65;-0.22;3.81;7.41;0.76
3.05;4.68;6.21;17.42;9.80;5.66
-2.61;-4.14;3.05;3.81;-3.92;2.40
-4.14;-4.14;7.08;0.54;-10.35;-0.00
2.29;4.68;1.42;11.00;-9.58;-1.63
1.42;-10.56;4.68;-1.85;-20.80;-0.00
-1.74;-4.14;1.42;0.54;-13.61;2.40
1.42;-1.74;4.68;3.81;5.01;2.40
-24.28;-15.46;0.65;2.18;5.77;4.03
3.05;-0.98;0.65;0.54;3.38;2.40
-0.98;5.55;-21.13;1.31;5.01;-4.90
-4.14;2.29;-0.98;9.37;5.01;-19.38
-2.61;-0.98;-2.61;-1.85;5.77;2.40
-4.14;0.65;-4.25;0.54;19.49;-2.40
-1.74;5.55;-0.98;-4.25;5.77;2.40
-24.28;2.29;-3.38;-1.85;1.74;2.40
3.05;6.32;-1.85;-9.15;-6.32;-0.00
2.29;1.52;-1.85;-5.88;-16.01;-6.43
2.29;6.32;-0.98;-3.48;-4.68;-21.78
2.29;6.32;-0.98;-5.88;-3.05;-1.63
5.44;2.29;-0.98;-3.48;5.01;-1.63
5.44;-0.98;0.65;19.93;3.38;4.79
3.05;-4.14;0.65;0.54;9.04;2.40
2.29;-1.74;4.68;11.00;13.07;6.43
2.29;-5.77;6.21;8.60;10.56;3.16
1.42;1.52;7.84;13.39;13.07;-0.00
-5.77;-4.14;7.84;26.35;6.53;-4.90
-1.74;-0.98;7.08;5.34;4.14;-4.90
2.29;-4.14;1.42;11.00;0.98;5.66
3.05;-2.50;1.42;-3.48;0.98;3.16
-2.61;-5.01;-0.98;-14.81;-11.98;3.16
2.29;-0.11;-0.22;-15.57;-15.14;3.16
-0.98;5.55;-0.22;-16.33;2.50;8.06
16.77;-6.53;-0.98;-17.21;-3.05;-5.66
-0.11;5.55;-0.98;-2.72;-11.98;0.76
0.65;4.68;-3.38;-7.51;-6.32;-8.93
-1.74;5.55;-26.79;3.81;-2.29;-10.45
23.20;7.95;-2.61;5.34;-2.29;-10.45
-0.98;3.92;3.05;12.63;0.11;-19.38
1.42;5.55;3.05;5.34;-5.55;2.40
-1.74;4.68;0.65;-1.09;-4.68;10.45
6.32;16.77;-0.98;-2.72;-7.95;9.69
3.05;-0.98;3.05;-5.88;0.11;11.22
0.65;1.52;0.65;-3.48;-3.92;2.40
3.92;-17.10;3.05;6.21;5.01;-2.40
0.65;-5.01;4.68;26.35;3.38;-8.93
-4.14;-5.01;-0.98;-1.85;8.17;2.40
2.29;-4.14;-2.61;5.34;4.14;2.40
-4.14;-4.14;0.65;8.60;4.14;-10.45
-0.98;-1.74;12.74;2.94;3.38;-12.96
-0.11;-0.98;0.65;-1.85;5.01;1.63
-0.98;-5.77;1.42;2.94;4.14;2.40
-0.11;6.32;-0.98;-1.85;-0.65;8.06
3.05;-2.50;24.83;-0.22;5.01;3.16
1.42;6.32;-3.38;-1.85;3.38;-2.40
28.86;2.29;-1.85;-0.22;5.01;-6.43
0.65;6.32;-0.98;2.18;5.01;1.63
10.35;20.04;-2.61;2.94;4.14;4.03
3.05;3.92;0.65;2.18;2.50;9.69
0.65;-0.98;-0.22;-1.09;-13.61;-0.00
3.05;-4.14;-0.98;-1.09;-9.58;-0.00
-0.98;-17.86;-0.98;-22.87;-0.65;-5.66
-0.11;-2.50;3.81;-1.85;12.20;-7.30
3.05;-5.01;12.74;3.81;4.14;24.18
3.92;0.65;1.42;-2.72;17.86;16.12
2.29;0.65;8.71;-1.85;8.17;8.06
0.65;-18.62;-0.22;-4.25;5.01;2.40
-7.41;-0.98;3.05;-5.88;-0.65;11.22
-7.41;-0.98;-0.98;-9.91;-11.98;-1.63
0.65;4.68;-0.98;-2.72;-10.35;3.16
-9.04;2.29;2.18;-7.51;-3.92;-5.66
33.65;4.68;-0.22;-20.36;5.01;-0.00
-0.11;-1.74;-0.98;19.93;9.04;0.76
-6.64;4.68;-3.38;25.48;5.01;7.19
3.05;0.65;-0.98;2.18;17.86;10.45
3.92;2.29;-2.61;10.24;5.01;0.76
7.95;6.32;-13.07;2.94;4.14;-1.63
-7.41;4.68;-0.98;6.21;-5.55;2.40
2.29;2.29;1.42;2.18;2.50;4.03
1.42;5.55;-3.38;5.34;-0.65;1.63
2.29;1.52;1.42;3.81;2.50;-3.27
3.05;4.68;3.05;2.18;1.74;-8.93
-2.61;-2.50;4.68;2.94;3.38;-9.69
-2.61;-5.01;1.42;10.24;0.11;-4.90
0.65;-4.14;-13.07;2.94;-3.05;-3.27
3.05;-1.74;-9.04;11.00;-4.68;2.40
-0.98;6.32;2.18;-1.85;-8.71;-0.00
-27.55;-4.14;-0.22;5.34;-10.35;-4.90
18.40;-5.77;-0.98;-1.09;-7.95;-0.00
-3.38;0.65;-0.98;-4.25;-3.92;2.40
3.05;-0.11;-0.22;-6.75;2.50;2.40
-2.61;4.68;1.42;-5.88;-3.92;7.19
2.29;5.55;-1.85;-10.78;5.01;3.16
3.05;6.32;-0.98;-7.51;7.41;-6.43
-0.98;2.29;0.65;-2.72;7.41;2.40
-0.98;4.68;-1.85;-1.85;16.23;2.40
-0.11;1.52;-0.98;2.18;17.10;-0.87
2.29;6.32;-0.98;0.54;7.41;-0.87
1.42;6.32;-0.98;-4.25;-26.46;-0.00
3.05;3.92;-0.22;0.54;-11.11;-1.63
-22.76;-0.98;3.05;0.54;-8.71;2.40
13.50;-4.14;0.65;-25.26;-9.58;0.76
-0.98;-0.98;23.96;3.81;-11.11;14.48
-0.98;1.52;2.18;2.18;-18.40;-2.40
0.65;-4.14;3.05;32.02;-13.61;-2.40
1.42;-4.14;0.65;19.06;2.50;1.63
-0.98;-2.50;3.81;22.32;9.80;5.66
-0.98;-0.98;1.42;18.30;17.86;6.43
2.29;-4.14;4.68;8.60;25.16;6.43
0.65;1.52;-25.16;-7.51;18.62;8.06
1.42;-0.98;0.65;-16.33;14.59;7.19
15.14;-2.50;-0.22;-17.21;-5.55;-12.96
3.05;1.52;-0.98;-17.21;-20.04;-1.63
1.42;6.32;13.50;-12.31;-20.80;-2.40
-0.11;18.40;-2.61;-9.15;-24.83;-12.09
-0.98;2.29;-5.01;-4.25;-13.61;-8.06
3.05;6.32;-5.88;-1.09;-15.14;-4.90
3.05;3.92;-5.01;0.54;-6.32;-0.87
3.05;4.68;-5.88;9.37;5.01;2.40
32.89;-4.14;-1.85;12.63;10.56;10.45
-21.13;-1.74;-0.98;11.00;13.07;12.85
-2.61;0.65;2.18;9.37;7.41;4.79
1.42;1.52;-0.98;5.34;4.14;2.40
2.29;-1.74;3.81;-2.72;0.11;2.40
-13.07;5.55;3.05;2.18;-2.29;2.40
-0.98;5.55;2.18;-4.25;-24.83;-6.43
-3.38;-2.50;3.81;-2.72;-2.29;-9.69
24.83;10.35;-0.22;-0.22;-12.74;-2.40
11.98;8.71;-0.98;3.81;-7.08;-8.06
-0.98;-5.01;17.53;-1.09;4.14;2.40
-4.14;-30.71;-0.98;1.31;6.53;0.76
-12.20;-5.77;-0.98;-9.91;13.83;2.40
0.65;4.68;-0.98;6.21;12.20;-2.40
1.42;1.52;-0.98;0.54;9.80;-2.40
-9.80;3.92;-1.85;1.31;5.01;-24.18
2.29;3.92;-2.61;1.31;4.14;2.40
0.65;0.65;-0.98;8.60;-2.29;-0.87
1.42;6.32;-13.07;-3.48;-0.65;1.63
-34.74;0.65;-0.98;-24.39;-3.92;6.43
4.68;-0.98;3.05;0.54;4.14;12.85
3.05;1.52;-0.22;-1.09;4.14;3.16
3.05;-0.98;3.05;0.54;5.01;4.79
3.05;-0.98;-8.28;-1.85;9.04;7.19
3.05;24.83;1.42;3.81;-0.65;-6.43
0.65;-2.50;23.96;6.97;1.74;-5.66
-2.61;-5.01;6.21;0.54;-11.11;-34.63
-1.74;-1.74;7.08;-1.85;-1.52;-11.33
0.65;1.52;1.42;2.94;5.01;-3.27
0.65;-1.74;-0.22;-3.48;-1.52;2.40
3.05;1.52;-0.98;-6.75;-11.98;2.40
-5.77;-2.50;11.11;-14.81;-20.80;4.79
2.29;0.65;-0.22;-9.15;-7.08;11.22
0.65;-1.74;-0.98;-7.51;3.38;-19.38
-0.98;6.32;-0.98;-1.85;14.59;-4.03
2.29;-0.98;-2.61;0.54;10.56;-8.06
0.65;6.32;-2.61;3.81;7.41;-4.90
-1.74;4.68;-5.01;2.18;13.83;-3.27
-22.76;6.32;-0.98;16.66;3.38;-3.27
2.29;0.65;-3.38;8.60;0.11;-4.90
3.05;-2.50;-0.98;2.94;-14.37;-9.69
3.05;-1.74;1.42;-26.90;-19.17;11.22
1.42;-0.11;3.81;6.97;-2.29;15.25
2.29;5.55;-0.98;2.94;-0.65;29.84
-10.67;-1.74;2.18;9.37;-0.65;4.03
-0.11;0.65;3.81;-2.72;-16.77;4.03
-4.14;-2.50;0.65;5.34;5.01;3.16
-7.41;-7.41;1.42;-4.25;5.77;2.40
24.83;-5.77;-0.98;2.18;5.01;-1.63
-4.14;-3.38;-0.98;15.03;5.01;-5.66
-0.98;-5.77;17.53;-0.22;4.14;-4.90
6.32;-6.53;2.18;0.54;5.01;-1.63
-7.41;6.32;-0.22;-1.85;5.77;1.63
-8.17;3.92;-0.22;-1.09;6.53;1.63
32.89;3.92;-1.85;-2.72;13.83;7.19
3.05;5.55;-0.98;-5.88;18.62;2.40
1.42;-17.10;-1.85;-0.22;7.41;-11.33
3.05;-0.98;-0.98;-1.85;7.41;-4.90
-2.61;-8.17;-3.38;-4.25;-0.65;-7.30
0.65;-19.49;-1.85;-9.15;-11.98;-11.33
2.29;0.65;-0.98;2.94;-18.40;0.76
0.65;6.32;-4.25;6.21;-17.53;10.45
1.42;0.65;1.42;8.60;-26.46;12.85
0.65;-0.98;2.18;8.60;-13.61;14.48
3.05;-0.98;24.83;8.60;-6.32;-4.90
21.56;-7.41;6.21;2.94;5.77;-0.00
-20.26;-3.38;3.81;11.00;15.46;-1.63
3.92;-1.74;1.42;12.63;15.46;-6.43
2.29;-2.50;-11.43;6.21;10.56;-25.05
-0.98;0.65;3.81;-1.85;0.98;-10.45
-1.74;-0.98;-0.98;-12.31;-11.98;-8.06
-5.01;-4.14;1.42;-17.21;-30.49;-12.09
-1.74;1.52;1.42;-17.21;-32.89;-11.33
-0.11;1.52;1.42;-14.81;-28.86;6.43
3.05;2.29;0.65;-14.81;-15.14;-5.66
-24.28;3.92;-0.98;-9.15;-10.35;4.03
-4.14;3.05;3.05;-5.12;3.38;2.40
-4.14;2.29;-0.98;-3.48;5.01;-4.90
-0.11;6.32;-5.01;2.94;9.80;-6.43
-33.21;-12.20;-2.61;10.24;26.68;1.63
3.05;3.92;-3.38;5.34;15.46;1.63
2.29;0.65;-0.98;2.94;13.83;-2.40
4.68;0.65;-0.98;9.37;17.10;6.43
8.71;-0.98;3.05;11.00;15.46;7.19
1.42;-21.13;3.05;11.00;17.86;2.40
5.44;2.29;3.81;11.00;23.52;3.16
-0.11;-2.50;6.21;-13.18;17.10;8.06
3.05;8.71;3.05;6.21;13.07;4.03
-0.11;-2.50;1.42;11.00;5.01;-2.40
-5.77;2.29;-0.98;13.39;-8.71;-0.00
-0.98;1.52;-2.61;8.60;-15.14;2.40
2.29;0.65;-0.98;2.94;-7.08;28.97
0.65;-21.13;-0.22;-5.12;-9.58;28.21
-1.74;-1.74;-0.98;-14.81;-11.98;4.79
-41.27;5.55;-1.85;-17.97;3.38;2.40
3.05;1.52;-0.98;-17.97;-6.32;1.63
3.05;2.29;-0.98;-14.81;-7.95;-0.00
3.05;6.32;-0.98;-13.18;3.38;-0.00
1.42;4.68;-1.85;-1.09;3.38;-4.90
-1.74;-0.98;-23.52;0.54;5.01;-6.43
-0.11;3.05;-2.61;3.81;5.01;-3.27
-1.74;-2.50;-3.38;8.60;5.01;-1.63
1.42;1.52;-1.85;15.03;16.23;-2.40
1.42;-4.14;3.81;11.87;10.56;-0.87
1.42;-0.98;2.18;6.97;3.38;4.03
2.29;-1.74;3.81;6.21;-2.29;3.16
3.05;-0.98;3.81;-0.22;-8.71;11.22
3.05;-0.98;0.65;-2.72;-7.08;3.16
3.05;2.29;8.71;-1.85;-12.74;7.19
3.05;6.32;1.42;-2.72;-10.35;5.66
3.05;3.92;-0.22;-3.48;-8.71;2.40
-6.64;1.52;-0.98;-4.25;-22.43;-24.18
-2.61;-2.50;0.65;-1.85;-16.01;19.28
-4.14;-23.52;-1.85;9.37;4.14;-5.66
-4.14;-1.74;-2.61;-1.09;7.41;-8.06
-4.14;3.05;-14.70;-2.72;13.07;-4.90
-0.98;2.29;-6.64;-7.51;20.26;1.63
3.05;6.32;-0.98;-0.22;12.20;-2.40
1.42;6.32;-1.85;0.54;6.53;-6.43
-24.28;3.92;-2.61;0.54;3.38;-4.90
3.05;-0.11;-0.22;-1.09;0.98;-0.87
0.65;-0.98;-0.22;5.34;0.98;0.76
2.29;0.65;-7.41;6.21;5.77;2.40
-1.74;1.52;3.05;5.34;-2.29;2.40
-2.61;6.32;35.28;7.84;0.11;-1.63
3.05;0.65;3.05;6.97;-3.05;-1.63
3.05;-5.01;5.44;6.97;0.98;3.16
3.05;0.65;6.21;5.34;2.50;8.82
-3.38;-3.38;-0.22;9.37;13.07;8.06
-4.14;-2.50;24.83;0.54;5.01;7.19
2.29;-5.77;3.05;-1.09;-18.40;4.79
3.92;-0.98;-0.22;-4.25;-3.05;5.66
3.05;1.52;-3.38;-9.91;-2.29;3.16
-10.67;-1.74;-3.38;-9.91;-10.35;-10.45
2.29;3.92;1.42;-1.85;-16.77;-20.15
2.29;4.68;11.11;11.87;-13.61;2.40
1.42;4.68;0.65;11.00;-10.35;-2.40
4.68;-0.98;-0.98;-0.22;-1.52;1.63
3.05;-2.50;-2.61;-2.72;-0.65;-23.41
3.05;6.32;-4.25;-12.31;-3.05;-4.90
1.42;5.55;-2.61;-13.94;1.74;2.40
-1.74;-5.77;-0.98;-14.81;-6.32;-8.93
-0.98;2.29;1.42;-9.91;-7.08;-5.66
-0.11;-2.50;-0.98;-3.48;5.77;-5.66
-26.68;-1.74;3.05;2.94;5.01;4.03
3.05;2.29;3.81;8.60;6.53;11.22
3.05;1.52;26.35;2.94;13.07;7.19
3.05;-9.80;-0.22;9.37;3.38;2.40
-0.98;-5.01;1.42;-0.22;0.11;3.16
14.37;-28.31;-0.98;-0.22;4.14;8.06
-6.64;-1.74;0.65;-3.48;0.98;12.85
-6.64;-0.98;-0.22;-5.88;5.01;20.15
0.65;11.11;1.42;2.18;7.41;14.48
-4.14;-19.49;-0.98;-0.22;3.38;-4.90
-5.01;21.56;-0.98;-1.09;4.14;-5.66
1.42;2.29;-2.61;-9.15;-5.55;-14.48
2.29;6.32;6.21;-5.88;-4.68;-23.41
-1.74;5.55;-26.79;0.54;3.38;-35.50
3.05;6.32;-0.22;-1.09;2.50;-21.78
2.29;6.32;-2.61;0.54;-2.29;-8.93
3.05;6.32;-0.98;6.97;29.95;-5.66
2.29;-0.98;4.68;2.18;0.11;3.16
3.05;20.04;3.05;16.66;-6.32;8.06
3.05;-4.14;7.08;-2.72;0.11;13.72
-1.74;-5.77;9.47;2.18;2.50;12.09
3.05;-2.50;3.05;2.18;2.50;3.16
-4.14;-12.20;1.42;-2.72;5.01;4.79
-0.98;1.52;2.18;-0.22;4.14;1.63
1.42;3.05;-0.98;2.94;24.28;5.66
3.05;1.52;-17.86;9.37;10.56;-20.15
3.05;2.29;1.42;8.60;6.53;2.40
-1.74;32.13;-0.22;6.21;12.20;0.76
-5.01;-2.50;-24.39;2.18;9.80;-15.35
2.29;5.55;-0.98;-1.85;4.14;4.03
0.65;6.32;-1.85;-13.94;-7.08;4.79
-8.17;16.77;-5.01;-19.60;-18.40;0.76
1.42;-0.98;-5.88;-9.15;-16.01;-4.90
-0.98;-26.68;-9.04;-9.15;-10.35;-8.93
-0.98;6.32;-5.88;-9.91;-7.95;-15.35
-5.77;3.05;-9.91;-5.88;-7.95;-10.45
0.65;3.05;-0.98;-2.72;4.14;0.76
3.05;-2.50;-0.98;-4.25;9.04;2.40
2.29;-2.50;-0.98;34.41;7.41;6.43
-5.01;-1.74;-0.22;-22.00;5.77;12.09
-17.10;23.20;4.68;23.09;-16.77;6.43
0.65;-0.98;1.42;6.21;-8.71;4.03
1.42;-3.38;9.47;5.34;-2.29;4.79
4.68;2.29;-13.07;5.34;-23.20;-3.27
0.65;-14.59;0.65;-1.85;-35.28;-9.69
-1.74;-31.58;1.42;-1.85;-20.80;-8.93
-0.11;-2.50;1.42;-1.85;-7.95;-4.90
-5.01;4.68;1.42;-0.22;5.01;3.16
3.05;6.32;4.68;-1.85;9.80;14.48
-3.38;1.52;-0.98;-1.09;17.10;7.19
-0.98;-0.11;-0.98;-1.85;20.26;7.19
-2.61;-5.01;-3.38;-16.33;21.89;5.66
0.65;5.55;-1.85;-5.88;26.68;-2.40
-4.14;4.68;-3.38;-4.25;26.68;-5.66
-4.14;1.52;-2.61;-4.25;-5.55;-3.27
3.05;7.95;-1.85;-0.22;3.38;2.40
3.05;1.52;-1.85;6.21;4.14;1.63
29.62;22.43;-0.98;-12.31;0.98;2.40
0.65;2.29;0.65;9.37;1.74;1.63
3.92;-1.74;3.81;28.75;-3.05;-1.63
7.08;-4.14;1.42;-1.09;-15.14;-5.66
4.68;-1.74;3.81;-2.72;-16.01;-4.90
3.05;-1.74;7.08;2.18;0.98;26.57
1.42;2.29;3.81;15.03;-2.29;-6.43
0.65;0.65;6.21;15.03;-3.05;0.76
-8.17;3.05;1.42;10.24;4.14;-1.63
-4.14;-1.74;-0.98;-4.25;3.38;0.76
-5.77;0.65;0.65;11.00;10.56;-8.06
-0.98;-1.74;-0.22;-22.87;6.53;-2.40
-3.38;-8.17;-1.85;-18.84;5.77;-4.90
-11.43;-4.14;-2.61;-18.84;5.01;2.40
-7.41;2.29;-5.01;-6.75;4.14;0.76
1.42;4.68;-2.61;-3.48;5.01;2.40
-6.64;4.68;-3.38;-0.22;1.74;4.79
34.52;6.32;-5.88;3.81;0.11;4.79
10.35;6.32;-2.61;-1.85;-3.92;2.40
3.05;6.32;-1.85;11.00;-3.05;3.16
2.29;-0.98;1.42;0.54;2.50;2.40
0.65;5.55;3.81;6.21;5.01;31.36
-1.74;3.92;0.65;8.60;4.14;4.79
-29.95;1.52;1.42;5.34;5.01;9.69
-0.98;-5.01;4.68;6.21;-11.98;4.03
3.05;11.98;3.05;11.00;0.98;2.40
3.05;-4.14;11.11;2.18;17.10;6.43
2.29;0.65;7.84;-2.72;9.04;4.79
3.05;2.29;7.08;11.00;5.77;26.57
-1.74;3.92;-0.98;-1.09;-2.29;-5.66
3.05;1.52;-0.98;-28.42;2.50;-13.72
-1.74;-0.98;-0.98;-5.12;-3.05;-16.12
-8.17;-0.98;-1.85;9.37;-12.74;-6.43
-0.98;3.92;-0.98;-4.25;15.46;1.63
3.05;3.92;-0.98;-0.22;4.14;7.19
0.65;13.50;0.65;-17.21;0.98;4.79
0.65;6.32;-2.61;-3.48;-7.95;3.16
3.05;5.55;-9.91;-6.75;-16.01;-3.27
3.05;6.32;-2.61;-1.85;-6.32;-1.63
5.44;4.68;-0.98;-2.72;5.01;2.40
7.08;-0.98;-0.98;3.81;9.04;4.79
0.65;-2.50;3.05;6.21;7.41;-0.00
1.42;36.92;1.42;-2.72;16.23;-1.63
-4.14;3.92;4.68;7.84;17.86;2.40
-4.14;-0.98;4.68;10.24;23.52;2.40
-0.98;-5.01;3.81;6.97;21.89;6.43
-8.17;-2.50;3.05;9.37;17.86;2.40
2.29;-2.50;3.81;2.18;18.62;8.06
4.68;1.52;0.65;6.97;4.14;2.40
2.29;-30.71;0.65;1.31;-9.58;-4.90
-0.98;4.68;-0.98;0.54;-20.80;-0.87
-5.01;-0.11;-15.46;-9.15;-32.13;2.40
2.29;-0.98;-0.22;-14.81;-34.52;3.16
2.29;-18.62;-1.85;-17.21;-37.68;22.54
2.29;3.05;-0.98;-19.60;-34.52;-8.93
-29.95;6.32;-0.98;-14.81;-20.80;24.18
0.65;1.52;-5.01;-38.88;-16.77;-1.63
3.05;6.32;-5.01;-2.72;-7.08;1.63
3.05;5.55;-0.98;0.54;12.20;-3.27
-5.01;4.68;4.68;4.57;16.23;-6.43
-11.43;2.29;-0.22;12.63;17.86;2.40
1.42;23.20;3.05;-0.22;17.10;1.63
1.42;-0.98;3.05;5.34;21.89;-0.87
-1.74;-3.38;4.68;6.97;23.52;7.19
-4.14;-0.98;3.81;5.34;20.26;4.79
-5.77;-5.01;6.21;1.31;9.04;10.45
3.05;-0.98;0.65;2.94;-7.08;2.40
3.05;-0.98;1.42;-0.22;-0.65;4.79
-0.98;-18.62;0.65;2.18;-6.32;-1.63
-0.98;0.65;-0.98;6.97;2.50;4.03
-2.61;-33.98;-0.98;-0.22;6.53;8.06
-2.61;-1.74;-0.22;19.06;9.80;11.22
-0.98;-4.14;-0.98;0.54;-3.05;3.16
0.65;23.20;-0.98;-3.48;5.01;2.40
1.42;7.08;-0.98;-0.22;5.01;-1.63
0.65;4.68;-1.85;-1.85;1.74;-6.43
2.29;3.92;-2.61;-4.25;-4.68;-8.93
-0.98;8.71;-0.22;-4.25;-8.71;-14.48
2.29;11.98;0.65;-7.51;-13.61;-18.51
1.42;1.52;2.18;-6.75;-11.11;-15.35
16.01;0.65;-0.98;-9.15;-6.32;2.40
-0.98;-4.14;-0.98;6.97;-7.95;2.40
3.05;-4.14;1.42;15.90;5.77;8.06
3.05;-0.98;1.42;11.87;5.01;7.19
2.29;-0.98;0.65;2.94;9.80;4.03
1.42;2.29;9.47;-1.85;5.01;2.40
0.65;-5.01;3.81;-13.18;5.01;2.40
-2.61;3.05;7.84;-15.57;-2.29;3.16
-2.61;-7.41;-0.22;-7.51;3.38;28.21
0.65;2.29;3.05;-12.31;5.01;-1.63
-0.98;-2.50;1.42;0.54;2.50;-1.63
-3.38;-3.38;-0.98;-1.09;-0.65;2.40
-0.11;6.32;-2.61;6.21;-5.55;-0.00
-4.14;2.29;-8.28;5.34;-2.29;1.63
-0.98;5.55;-0.98;11.00;0.11;2.40
15.14;3.92;11.87;0.54;0.11;2.40
2.29;2.29;-3.38;-2.72;-5.55;3.16
-32.34;-6.53;-1.85;0.54;2.50;4.79
-0.98;14.37;-0.98;2.94;-1.52;2.40
0.65;15.14;0.65;-1.85;1.74;2.40
24.07;2.29;-0.98;-20.36;5.01;0.76
1.42;0.65;12.74;0.54;12.20;-3.27
3.92;3.05;0.65;9.37;18.62;-0.00
2.29;0.65;2.18;0.54;12.20;-0.87
34.52;-0.98;3.81;5.34;5.01;2.40
2.29;-5.01;-0.98;-0.22;2.50;-0.87
3.05;-2.50;3.05;-1.85;5.01;-0.00
-1.74;-6.53;-0.98;-4.25;-10.35;27.33
-0.98;-0.98;-1.85;-0.22;-16.01;-1.63
-0.11;0.65;1.42;-0.22;-17.53;-10.45
2.29;2.29;-0.98;-4.25;-18.40;-9.69
-4.14;-1.74;1.42;-6.75;-16.77;-1.63
-0.11;-3.38;15.14;-1.85;-9.58;0.76
0.65;-0.98;1.42;-1.09;5.01;-0.87
-8.17;2.29;3.81;2.94;5.01;-12.09
-5.77;2.29;-6.64;5.34;20.26;2.40
21.56;1.52;-3.38;3.81;33.21;4.03
-23.52;6.32;-1.85;-1.85;29.95;7.19
-21.89;41.71;-0.98;3.81;19.49;2.40
1.42;5.55;0.65;2.18;-6.32;-5.66
16.01;-2.50;-0.22;19.06;-11.98;2.40
3.05;3.92;-15.46;-1.85;-20.80;1.63
3.05;-5.01;1.42;-0.22;-20.80;0.76
3.05;0.65;7.84;5.34;-24.83;2.40
-0.98;13.50;3.05;-1.85;-24.83;1.63
3.05;-5.77;-2.61;-1.09;-23.20;-1.63
-35.61;-4.14;-0.22;-5.88;-20.04;-3.27
0.65;-4.14;19.93;-1.85;-2.29;-2.40
-1.74;1.52;-0.98;2.18;-7.95;-0.00
-0.98;3.92;-0.98;-0.22;9.04;-5.66
-7.41;2.29;-0.22;-0.22;19.49;-4.90
1.42;-5.01;1.42;-0.22;26.68;1.63
2.29;2.29;-0.98;-5.12;25.92;1.63
3.92;-16.23;-4.25;-9.15;13.07;-3.27
3.05;4.68;-1.85;-13.18;4.14;2.40
-10.67;6.32;-0.98;-12.31;0.11;23.30
3.05;6.32;-0.98;-14.81;5.77;5.66
3.05;5.55;-2.61;6.97;-10.35;8.06
2.29;2.29;-0.98;0.54;-3.92;8.06
2.29;2.29;-0.98;6.97;-9.58;2.40
27.22;4.68;-0.98;8.60;-6.32;-4.90
-7.41;6.32;2.18;11.00;-2.29;-2.40
3.05;-4.14;1.42;11.00;5.01;-1.63
2.29;-2.50;-0.22;8.60;7.41;-0.00
3.05;-2.50;-0.98;-1.85;5.01;4.03
-30.71;-0.98;-1.85;-1.09;3.38;4.79
9.47;3.05;3.81;-0.22;-0.65;0.76
2.29;-5.77;3.81;-0.22;0.11;4.79
0.65;-0.98;3.05;0.54;8.17;3.16
-1.74;-2.50;-14.70;-0.22;12.20;5.66
-0.98;-0.98;-0.22;0.54;7.41;2.40
-5.77;4.68;-0.22;-1.09;-4.68;-1.63
-7.41;-4.14;-0.98;3.81;5.01;2.40
1.42;6.32;-0.22;-0.22;4.14;2.40
-22.76;3.92;-0.22;1.31;-3.05;-0.87
0.65;2.29;2.18;-1.09;0.98;-1.63
3.05;6.32;-3.38;-1.85;-16.01;-1.63
-2.61;7.08;-1.85;0.54;-8.71;-3.27
3.05;2.29;-1.85;0.54;-2.29;-5.66
1.42;6.32;-0.98;11.00;0.98;-3.27
2.29;3.05;-0.98;6.21;-2.29;-10.45
3.05;0.65;-0.98;11.87;3.38;-1.63
-17.10;-5.77;-0.98;-4.25;5.01;0.76
-0.11;32.13;4.68;19.06;13.07;-0.00
-5.77;-4.14;4.68;-10.78;16.23;2.40
-0.98;-31.58;1.42;-10.78;5.77;0.76
1.42;1.52;19.93;-5.12;-10.35;-2.40
0.65;-2.50;0.65;-6.75;-12.74;-6.43
1.42;-1.74;4.68;-1.85;-11.98;16.12
-4.14;5.55;2.18;-1.85;-6.32;-1.63
-0.98;3.92;0.65;2.94;-2.29;2.40
-0.11;-0.98;-0.98;-3.48;0.98;2.40
3.05;1.52;-0.98;11.00;0.98;5.66
2.29;7.08;-9.91;2.94;3.38;7.19
-0.98;-8.17;-0.98;6.21;4.14;5.66
-18.73;3.92;-5.01;6.97;0.98;6.43
3.05;7.08;-0.98;2.18;5.01;10.45
1.42;-7.41;-3.38;-0.22;15.46;10.45
0.65;1.52;-4.25;0.54;21.89;7.19
-35.61;6.32;-0.22;2.18;13.07;2.40
0.65;2.29;-0.98;-1.85;6.53;1.63
-1.74;-2.50;0.65;3.81;5.01;2.40
-0.98;-0.98;3.81;0.54;-0.65;-1.63
3.05;2.29;9.47;2.94;1.74;4.03
0.65;-4.14;7.08;2.94;-10.35;-0.87
-2.61;-27.55;1.42;19.06;-12.74;-8.06
0.65;-4.14;-9.91;6.97;-7.95;-3.27
3.05;-2.50;19.93;2.94;-14.37;-10.45
24.07;6.32;3.05;-1.09;-12.74;-9.69
-5.01;3.92;-0.98;-1.09;-11.98;2.40
-2.61;-1.74;-0.98;-3.48;-11.98;-4.90
1.42;1.52;-0.98;-8.28;-10.35;-8.93
-1.74;6.32;-0.22;-12.31;-20.04;2.40
8.71;-1.74;-1.85;-6.75;-16.01;-10.45
-4.14;-0.98;-3.38;-1.85;0.11;-1.63
1.42;1.52;-0.22;-1.85;5.01;0.76
-0.11;6.32;-0.98;-4.25;19.49;3.16
3.05;-0.98;-12.31;0.54;9.80;-21.02
1.42;4.68;-14.70;6.21;13.07;-12.96
3.05;5.55;-1.85;11.00;22.65;2.40
0.65;-2.50;-0.22;16.66;17.86;12.09
-7.41;-5.77;-0.22;16.66;17.10;9.69
0.65;31.25;7.84;11.00;9.80;12.09
3.05;-6.53;7.08;3.81;4.14;13.72
3.05;-0.98;-1.85;-4.25;4.14;4.79
3.05;-5.01;3.81;-9.15;-10.35;-5.66
3.05;3.92;2.18;-12.31;-7.08;-6.43
2.29;-26.68;1.42;-33.32;0.11;-6.43
3.05;2.29;1.42;-9.15;5.01;-2.40
3.05;-0.98;-0.98;-6.75;4.14;-0.87
0.65;0.65;-0.98;-1.09;5.01;4.79
3.05;-3.38;-0.22;3.81;-3.05;3.16
1.42;1.52;-3.38;2.94;-14.37;0.76
-0.98;-0.98;-1.85;8.60;-8.71;4.03
-7.41;-5.77;-0.98;4.57;0.11;-25.81
-0.98;-0.98;-1.85;3.81;2.50;-19.38
-0.98;6.32;-1.85;5.34;-2.29;-13.72
-0.98;24.83;-3.38;-5.88;17.10;1.63
-1.74;6.32;3.81;3.81;0.98;7.19
3.05;-0.98;-0.98;-25.26;0.98;1.63
3.05;-2.50;0.65;19.06;2.50;6.43
-2.61;-0.98;-0.98;32.02;3.38;4.79
0.65;-1.74;3.81;0.54;7.41;-3.27
11.98;6.32;1.42;11.00;5.77;-2.40
1.42;2.29;2.18;1.31;5.01;-4.90
0.65;5.55;-0.22;2.94;5.01;-1.63
2.29;-2.50;-0.98;2.18;-0.65;5.66
0.65;-5.77;-0.98;8.60;-3.92;2.40
3.05;0.65;1.42;2.18;-7.95;11.22
3.05;4.68;0.65;-2.72;-6.32;22.54
2.29;3.92;-0.22;-1.85;-11.98;2.40
-1.74;5.55;-0.22;-7.51;-7.08;1.63
2.29;-4.14;0.65;-5.88;-10.35;-3.27
-2.61;-1.74;-0.98;-6.75;-7.08;-11.33
3.05;-4.14;-0.98;2.18;-5.55;-12.09
2.29;-1.74;3.05;11.00;0.98;-9.69
-4.14;0.65;1.42;10.24;7.41;-6.43
-0.98;2.29;-1.85;0.54;3.38;0.76
-1.74;6.32;-2.61;-10.78;-2.29;2.40
-1.74;5.55;-0.98;-22.87;-5.55;0.76
3.05;-1.74;-0.98;-13.18;5.01;2.40
-0.11;-2.50;-0.98;-9.15;14.59;24.18
2.29;-5.77;1.42;-3.48;23.52;9.69
3.05;-6.53;4.68;0.54;25.92;7.19
3.05;-1.74;7.84;0.54;28.31;-23.41
3.92;-5.77;7.08;11.00;13.07;2.40
0.65;-1.74;1.42;12.63;-0.65;-2.40
-7.41;3.92;0.65;13.39;-11.98;-5.66
3.05;-6.53;3.81;7.84;-18.40;2.40
-0.98;-3.38;7.08;2.94;-20.80;-23.41
-0.98;1.52;-0.98;-5.88;-20.80;2.40
3.05;-17.10;-0.98;-2.72;-20.80;-1.63
-5.01;-2.50;-0.98;-9.91;-9.58;-0.87
0.65;1.52;-2.61;-9.91;4.14;2.40
3.05;-8.17;-5.01;-5.88;2.50;2.40
0.65;3.05;-5.01;-7.51;4.14;1.63
-0.98;6.32;-9.91;-0.22;5.01;-4.90
-2.61;4.68;-2.61;5.34;5.01;-0.00
3.05;7.08;-0.98;9.37;3.38;0.76
8.71;0.65;-0.98;-25.26;-2.29;1.63
3.05;3.92;-0.22;2.18;-3.05;2.40
15.14;-5.01;3.05;11.00;0.11;2.40
2.29;-5.77;-0.22;-26.90;-1.52;2.40
-0.98;-6.53;3.05;-2.72;4.14;0.76
-1.74;11.11;3.05;-1.09;-7.95;-5.66
-6.64;-3.38;1.42;-1.85;5.77;-9.69
-5.77;-9.04;1.42;11.00;5.01;-9.69
0.65;-1.74;-0.98;2.18;8.17;-6.43
-1.74;-5.01;-0.22;-4.25;6.53;2.40
-9.04;31.25;-0.98;2.94;5.01;4.79
1.42;2.29;-3.38;2.94;10.56;8.06
-5.01;-6.53;-0.22;-0.22;10.56;8.06
-7.41;5.55;0.65;0.54;5.01;10.45
8.71;3.05;-0.98;-1.85;1.74;11.22
7.08;-1.74;1.42;2.18;5.01;12.85
10.35;7.08;-2.61;-0.22;5.01;2.40
1.42;32.13;0.65;-29.29;4.14;-3.27
-0.98;2.29;-2.61;-1.85;7.41;-0.00
-7.41;4.68;-3.38;2.94;5.01;4.79
5.44;2.29;-1.85;-13.94;-13.61;-2.40
14.37;4.68;-9.04;2.94;3.38;2.40
3.05;-4.14;0.65;-18.84;0.98;-8.93
2.29;0.65;-0.98;-1.85;-3.92;-8.93
0.65;-2.50;2.18;2.18;-4.68;-10.45
3.05;-1.74;3.05;0.54;-7.95;-2.40
1.42;-2.50;23.20;4.57;-2.29;-10.45
2.29;18.40;4.68;-9.15;-0.65;-9.69
3.92;-3.38;3.81;-0.22;-3.92;12.85
-0.98;1.52;10.24;-1.09;1.74;-18.51
-1.74;-2.50;0.65;-34.85;-7.95;-1.63
1.42;-5.77;6.21;-8.28;-3.05;2.40
3.92;1.52;4.68;-6.75;2.50;6.43
0.65;1.52;-0.98;19.93;-24.83;2.40
-4.14;0.65;-2.61;-5.88;4.14;2.40
11.98;5.55;0.65;-2.72;5.77;2.40
-4.14;-0.98;-3.38;-1.85;0.11;0.76
2.29;5.55;-24.39;-0.22;3.38;-4.90
1.42;6.32;-6.64;4.57;7.41;-4.90
3.92;7.08;23.96;6.97;12.20;-10.45
3.05;3.92;-0.98;12.63;6.53;-11.33
-5.01;-4.14;-0.98;11.00;5.01;-4.90
-8.17;15.14;3.81;-6.75;33.21;5.66
17.53;-2.50;7.08;26.35;7.41;8.06
1.42;0.65;-21.13;11.00;5.01;22.54
3.92;2.29;-15.46;8.60;5.01;18.51
6.32;0.65;13.50;-5.12;-10.35;4.03
1.42;-2.50;4.68;-9.15;-9.58;2.40
1.42;15.14;1.42;-6.75;0.11;-0.87
1.42;-2.50;3.05;-4.25;-0.65;-5.66
-0.98;-10.56;-0.98;-7.51;0.98;-11.33
-12.20;-2.50;-1.85;-12.31;-5.55;-21.78
15.14;-4.14;-0.98;-13.94;-25.59;-18.51
-4.14;1.52;-0.98;-5.88;-5.55;-0.00
3.05;1.52;-4.25;-7.51;2.50;2.40
-2.61;28.10;-1.85;-35.72;-11.98;0.76
-0.98;4.68;-0.98;-22.00;-5.55;-9.69
-0.98;6.32;9.47;-6.75;3.38;13.72
0.65;-20.26;-4.25;-4.25;-2.29;-23.41
2.29;2.29;-2.61;-0.22;8.17;-4.90
1.42;5.55;-0.98;3.81;12.20;3.16
-0.98;4.68;-0.98;12.63;13.83;8.82
-2.61;-13.83;3.05;16.66;5.77;16.12
-0.98;-6.53;3.05;11.87;0.98;17.75
3.05;-5.77;1.42;3.81;-9.58;29.84
3.05;-9.80;1.42;-2.72;-13.61;8.06
0.65;-21.13;7.84;-5.12;-9.58;3.16
2.29;0.65;1.42;-9.15;-10.35;-1.63
-0.11;-0.98;8.71;-6.75;-9.58;-9.69
2.29;-5.77;7.84;-13.94;-0.65;-1.63
0.65;1.52;-0.98;-0.22;-15.14;0.76
-0.98;-4.14;2.18;2.94;10.56;0.76
-2.61;-0.98;-25.92;8.60;7.41;-23.41
-1.74;-8.17;-0.98;8.60;9.80;-5.66
-9.80;1.52;-1.85;2.18;2.50;-8.06
-18.73;4.68;-0.98;-2.72;5.01;-0.00
0.65;3.92;-3.38;-0.22;5.77;0.76
0.65;2.29;-0.98;0.54;7.41;-2.40
0.65;10.35;-25.92;-0.22;7.41;0.76
2.29;4.68;-4.25;-1.09;0.98;4.03
3.05;-15.46;-0.98;-1.85;0.98;1.63
-0.98;-1.74;-0.22;-13.94;4.14;-1.63
1.42;-0.98;3.05;-1.09;2.50;-18.51
1.42;0.65;0.65;-1.85;0.11;3.16
2.29;-0.98;3.05;2.18;0.98;-24.18
-0.98;4.68;0.65;-0.22;5.01;-0.00
-0.11;-4.14;3.05;-1.09;4.14;-11.33
-1.74;-0.98;-0.98;-7.51;-16.77;-6.43
17.53;-4.14;2.18;16.66;-3.05;-1.63
3.05;31.25;-0.22;0.54;-3.05;6.43
3.05;1.52;-3.38;-0.22;6.53;9.69
3.05;2.29;3.05;-1.09;5.01;14.48
2.29;3.92;-0.98;5.34;7.41;6.43
-7.41;-18.62;-0.98;-1.09;13.83;16.12
0.65;2.29;-2.61;2.94;9.04;2.40
-1.74;3.92;-8.28;3.81;9.04;-6.43
-7.41;1.52;-4.25;2.94;-3.92;-2.40
-1.74;1.52;-2.61;0.54;2.50;-4.90
0.65;-0.98;-1.85;3.81;3.38;-8.06
3.05;5.55;-0.98;3.81;-7.08;-8.06
3.05;8.71;11.11;3.81;-8.71;-0.00
3.05;0.65;0.65;2.94;-2.29;2.40
-0.11;1.52;0.65;2.94;2.50;-1.63
-0.98;0.65;-0.22;-2.72;0.98;-4.90
3.92;-5.01;3.81;-1.09;5.01;-2.40
3.05;-5.01;11.87;-4.25;5.01;-4.90
-5.01;1.52;1.42;-1.85;6.53;-2.40
-5.77;-0.98;4.68;-5.88;4.14;0.76
-4.14;1.52;0.65;-22.00;1.74;2.40
3.05;-21.13;-0.98;-1.85;-3.05;-1.63
11.98;-2.50;-0.22;-1.85;-5.55;9.69
1.42;-8.17;3.81;-1.85;-10.35;0.76
-1.74;2.29;0.65;-3.48;-7.08;1.63
-10.67;6.32;0.65;1.31;-8.71;1.63
2.29;1.52;-0.98;0.54;-6.32;1.63
-5.01;4.68;0.65;6.97;2.50;-5.66
28.86;3.92;-1.85;-0.22;17.10;-4.90
-4.14;1.52;-1.85;2.18;-3.92;-4.90
2.29;2.29;-2.61;2.94;2.50;4.03
3.05;5.55;-2.61;-1.09;5.01;12.09
5.44;2.29;6.21;-2.72;-11.98;16.12
-8.17;-6.53;-0.22;-3.48;-20.80;20.15
3.05;-4.14;-0.98;-5.88;-18.40;0.76
-29.95;-4.14;2.18;0.54;0.11;4.03
3.05;-0.98;4.68;26.35;13.07;9.69
5.44;-1.74;4.68;6.21;11.43;2.40
-1.74;-0.98;3.05;3.81;8.17;0.76
-4.14;-2.50;3.05;11.00;5.01;-6.43
3.05;-0.98;-0.22;11.00;10.56;-0.87
3.05;-1.74;3.81;9.37;7.41;0.76
-25.92;-3.38;-0.22;-0.22;21.89;-0.00
-5.01;-5.01;-0.98;-5.88;16.23;-3.27
-7.41;-3.38;-0.98;-15.57;7.41;0.76
-5.77;1.52;-0.98;-13.94;4.14;-1.63
-5.77;-0.98;-3.38;-16.33;-11.11;1.63
0.65;2.29;-0.98;-4.25;-17.53;-0.87
-8.17;-4.14;-3.38;-36.48;-21.56;-5.66
2.29;6.32;-2.61;-7.51;-45.74;-1.63
2.29;3.92;-3.38;-1.85;-22.43;-1.63
1.42;4.68;-3.38;0.54;-21.56;14.48
1.42;3.92;-0.98;1.31;-19.17;0.76
2.29;1.52;-0.98;31.15;-10.35;-0.00
3.05;0.65;3.05;19.93;-7.95;-0.00
-5.01;1.52;-0.22;6.21;5.01;4.03
2.29;0.65;-5.01;14.27;13.83;6.43
7.08;-1.74;8.71;22.32;17.86;5.66
0.65;-5.77;4.68;49.66;17.10;0.76
-8.17;-0.98;5.44;11.00;23.52;-13.72
-0.98;-30.71;1.42;-3.48;17.86;2.40
2.29;-5.01;3.81;-11.54;13.07;2.40
-2.61;2.29;3.05;-14.81;7.41;1.63
-5.01;1.52;1.42;-12.31;-0.65;-8.93
3.05;6.32;1.42;-12.31;3.38;2.40
-0.98;-4.14;-0.98;-22.00;-2.29;1.63
-0.98;3.92;-1.85;-39.75;-6.32;-1.63
-0.98;3.92;-1.85;-9.91;-8.71;-0.00
1.42;3.05;-2.61;-4.25;-11.98;20.91
12.74;-0.98;-4.25;-1.85;-9.58;0.76
-5.01;6.32;-0.98;-2.72;3.38;-6.43
-5.01;3.92;-0.98;-2.72;13.83;-12.96
2.29;3.92;-0.98;-1.09;1.74;-1.63
2.29;0.65;-3.38;10.24;3.38;7.19
-0.11;4.68;-0.98;10.24;5.01;4.79
3.05;0.65;-11.43;6.97;-2.29;2.40
10.35;-5.77;4.68;11.00;0.98;7.19
2.29;-5.77;7.08;20.69;5.01;17.75
3.05;0.65;7.84;8.60;7.41;20.15
3.92;2.29;6.21;2.94;17.10;12.09
2.29;-1.74;4.68;11.00;17.10;7.19
2.29;-1.74;2.18;2.18;5.77;-1.63
-2.61;3.92;1.42;2.18;5.01;-9.69
-0.11;-2.50;-0.98;2.94;3.38;-18.51
0.65;3.92;0.65;-0.22;-7.08;-16.12
-0.98;3.05;20.80;-5.88;-8.71;-12.96
2.29;5.55;-0.98;-3.48;-0.65;-7.30
2.29;1.52;-1.85;-2.72;0.11;-0.87
-0.98;0.65;-3.38;-18.84;-17.53;-1.63
2.29;-8.17;-1.85;-2.72;-6.32;-25.05
-0.11;8.71;-0.98;1.31;-5.55;-0.87
3.05;-5.77;-0.98;-0.22;0.11;-24.18
-0.98;1.52;0.65;-26.90;5.01;-5.66
-0.98;2.29;-16.33;-1.85;13.07;-4.90
-0.98;-5.01;0.65;-1.09;-5.55;-5.66
0.65;-22.65;2.18;-6.75;8.17;-5.66
-2.61;0.65;-0.22;-0.22;9.04;-1.63
1.42;-1.74;3.05;-1.85;5.01;8.06
3.05;-3.38;6.21;-5.12;0.98;16.12
16.77;-4.14;-0.22;27.12;1.74;6.43
2.29;-0.98;3.05;0.54;-11.98;0.76
29.62;-4.14;-0.98;-3.48;-39.31;-9.69
-3.38;2.29;-0.98;-1.85;-26.46;2.40
2.29;-1.74;0.65;-1.85;-10.35;6.43
-1.74;-1.74;-0.98;-0.22;0.98;1.63
-0.98;5.55;-18.73;-3.48;0.98;2.40
-2.61;-5.77;-1.85;-19.60;5.01;-0.87
1.42;6.32;-0.98;-6.75;17.10;-3.27
0.65;-0.98;-1.85;-0.22;13.07;0.76
1.42;6.32;-0.98;1.31;15.46;1.63
0.65;6.32;-5.88;6.97;9.04;1.63
1.42;7.08;-0.98;3.81;9.80;0.76
-1.74;-4.14;-1.85;-1.09;9.80;-4.90
-22.76;-0.98;5.44;2.94;10.56;-4.90
3.05;-8.17;7.08;2.18;9.04;2.40
4.68;-29.95;1.42;2.94;4.14;-3.27
4.68;-4.14;3.05;-2.72;3.38;-1.63
3.05;-0.98;3.05;-2.72;-5.55;2.40
3.92;-3.38;6.21;18.30;5.01;2.40
0.65;-23.52;3.81;-1.09;-20.04;-0.00
-21.89;0.65;3.81;0.54;-20.80;-2.40
-4.14;0.65;-0.98;-1.85;-20.04;-5.66
-2.61;-1.74;0.65;-2.72;-12.74;-6.43
-5.01;2.29;1.42;-0.22;0.11;-1.63
-0.98;-1.74;1.42;-4.25;3.38;2.40
-4.14;6.32;-0.22;-3.48;5.77;3.16
-0.98;5.55;-0.98;-4.25;4.14;3.16
3.05;1.52;-0.22;8.60;0.11;0.76
-1.74;-2.50;-1.85;-6.75;-2.29;-0.00
3.05;6.32;-2.61;-1.85;0.11;-0.00
0.65;4.68;3.81;1.31;2.50;4.03
2.29;-1.74;-0.98;6.21;-2.29;-1.63
1.42;-0.98;-0.98;8.60;-7.08;1.63
3.05;-2.50;7.84;3.81;3.38;2.40
0.65;-4.14;3.81;2.18;4.14;2.40
-1.74;-6.53;4.68;6.97;-0.65;9.69
3.92;1.52;7.84;11.00;2.50;8.06
-13.83;2.29;0.65;3.81;5.01;2.40
2.29;-2.50;2.18;-0.22;5.01;-1.63
-2.61;-3.38;1.42;-1.85;5.01;3.16
-1.74;-5.01;4.68;-6.75;6.53;3.16
0.65;0.65;-2.61;-9.91;3.38;8.06
2.29;3.92;-0.98;-5.88;5.77;-0.00
2.29;-0.98;-16.33;-1.09;7.41;0.76
-0.98;3.05;7.84;9.37;0.98;-8.06
-0.11;27.22;-0.22;16.66;2.50;-2.40
-4.14;0.65;-0.22;12.63;5.01;3.16
1.42;3.92;-1.85;-0.22;6.53;1.63
3.05;6.32;2.18;-9.15;7.41;3.16
-5.01;7.08;-1.85;-14.81;0.98;-0.87
3.05;1.52;-0.22;-14.81;0.11;-4.90
-2.61;4.68;14.27;-17.21;-5.55;-4.90
-0.11;-5.77;-2.61;-9.15;-6.32;-4.90
-23.52;-12.20;-0.22;-1.85;-5.55;1.63
2.29;2.29;-0.22;23.09;-10.35;-8.06
-0.98;-0.98;-0.98;2.18;-20.80;-23.41
-0.98;-5.01;7.84;11.00;-11.98;-44.32
11.11;-0.98;3.81;9.37;-0.65;-1.63
0.65;-0.98;4.68;11.00;5.77;30.60
2.29;-0.98;0.65;10.24;5.01;8.06
-0.98;-24.28;6.21;-12.31;0.11;11.22
-27.55;2.29;3.05;-1.09;-8.71;16.88
36.15;-0.98;-0.22;-2.72;0.98;20.15
3.05;-0.98;3.81;0.54;10.56;17.75
3.05;-2.50;3.05;-1.09;20.26;8.06
2.29;1.52;-0.98;-6.75;19.49;8.06
2.29;-4.14;-0.98;-5.12;5.01;2.40
1.42;0.65;-0.98;-7.51;5.01;2.40
-1.74;2.29;-5.88;-1.85;17.10;-2.40
-5.01;1.52;-3.38;2.18;-3.92;-4.03
-1.74;3.05;3.05;2.94;-6.32;-2.40
1.42;3.92;-0.98;7.84;5.01;-2.40
-15.46;2.29;-0.98;-18.84;-5.55;0.76
-0.98;0.65;-0.98;6.97;5.01;-0.00
-0.98;5.55;-0.98;2.94;7.41;2.40
-0.98;-17.10;0.65;-0.22;4.14;-6.43
-9.04;-0.98;4.68;0.54;-15.14;-12.09
3.05;0.65;26.35;3.81;-0.65;-3.27
2.29;5.55;-0.98;2.18;5.01;-9.69
3.05;2.29;4.68;2.94;4.14;-7.30
0.65;-4.14;3.81;2.18;-2.29;-0.87
0.65;4.68;0.65;-0.22;-0.65;4.79
-4.14;3.92;0.65;-2.72;-0.65;7.19
-0.11;-9.04;-0.98;-1.85;5.77;2.40
-0.98;1.52;-0.98;-5.88;5.01;2.40
2.29;-5.01;-0.98;-1.85;-0.65;4.79
0.65;-1.74;-0.98;-7.51;5.77;12.85
0.65;0.65;-0.98;-1.09;5.01;11.22
0.65;-2.50;-1.85;-1.09;6.53;7.19
3.05;4.68;-1.85;0.54;0.98;4.03
3.05;3.92;-0.98;0.54;-5.55;-9.69
1.42;2.29;-0.98;-3.48;-7.08;-8.93
1.42;3.05;-0.98;-1.85;-3.92;-5.66
-1.74;0.65;-0.98;-1.09;-5.55;-8.06
-1.74;-0.98;0.65;2.18;-3.05;9.69
-2.61;-3.38;3.81;-0.22;9.04;1.63
2.29;-8.17;4.68;2.94;9.04;3.16
-9.04;-26.68;0.65;12.63;5.01;4.79
1.42;-1.74;3.05;8.60;25.16;9.69
-13.83;-5.77;7.84;3.81;9.04;9.69
0.65;3.92;1.42;6.97;15.46;8.06
-1.74;-1.74;0.65;-10.78;20.26;4.79
3.05;-4.14;1.42;2.18;25.16;2.40
-0.98;-2.50;1.42;6.97;21.89;-1.63
-5.01;-1.74;-0.22;2.18;13.07;-0.00
-1.74;-2.50;-13.07;-6.75;-3.05;-4.90
1.42;4.68;-0.98;-5.12;-17.53;-6.43
23.20;-20.26;-0.98;-9.15;-20.80;16.12
0.65;26.46;-3.38;-34.85;-24.07;0.76
0.65;3.05;-18.73;-4.25;-20.80;1.63
2.29;6.32;-5.01;1.31;-16.77;2.40
1.42;-0.98;-2.61;-4.25;-10.35;2.40
0.65;-0.98;-1.85;-1.09;0.11;2.40
-0.98;2.29;3.81;-1.85;5.01;-23.41
1.42;6.32;-6.64;-3.48;-2.29;-4.03
-1.74;4.68;0.65;1.31;5.77;-10.45
-12.20;24.83;3.81;16.66;22.65;-3.27
-0.98;-26.68;-0.98;6.97;9.04;-4.90
-0.98;-1.74;-0.22;3.81;0.98;14.48
-5.01;-6.53;1.42;0.54;-32.13;-4.90
0.65;-9.80;0.65;1.31;-10.35;-1.63
2.29;-4.14;13.50;-3.48;-15.14;-1.63
-39.64;2.29;3.05;-5.88;-3.92;2.40
-1.74;-2.50;-0.98;-5.88;5.01;3.16
-5.77;-0.98;4.68;-0.22;5.01;21.78
-0.98;-2.50;2.18;-9.91;7.41;-7.30
-2.61;3.05;-2.61;-1.85;23.52;-14.48
0.65;2.29;0.65;2.94;12.20;-12.09
-0.98;4.68;-0.98;3.81;20.26;-1.63
0.65;6.32;-5.01;2.94;9.80;-8.06
40.18;-2.50;-1.85;6.21;5.77;-4.90
3.05;6.32;-1.85;0.54;10.56;-1.63
3.05;1.52;-0.98;2.18;8.17;7.19
3.05;-0.98;-3.38;6.21;7.41;5.66
3.05;1.52;1.42;2.94;13.07;11.22
3.05;-4.14;1.42;6.97;5.01;19.28
5.44;2.29;-0.22;21.45;2.50;12.85
3.05;-0.98;11.11;19.06;-20.80;-22.54
-0.98;28.86;9.47;11.00;-15.14;0.76
-1.74;-5.77;7.08;-9.15;-6.32;2.40
2.29;-1.74;3.81;-15.57;-5.55;-0.87
11.11;3.92;3.81;-41.38;-2.29;2.40
16.77;-0.98;2.18;-26.03;5.77;4.03
-0.98;-29.19;-0.98;-36.48;9.80;-2.40
-9.80;-17.86;-3.38;-13.94;5.01;-6.43
-5.01;1.52;17.53;-9.91;-2.29;-30.60
-2.61;0.65;-0.98;-1.85;-3.05;-3.27
-0.98;4.68;-0.98;5.34;-3.05;-3.27
-0.98;4.68;-2.61;6.21;-7.08;-5.66
-4.14;5.55;-5.01;11.00;-2.29;-5.66
3.05;3.05;-25.92;2.94;-3.05;-23.41
3.05;5.55;-0.98;8.60;-3.05;-1.63
2.29;2.29;3.05;6.21;-3.05;-8.93
3.05;1.52;-5.88;3.81;-3.92;-8.06
3.05;1.52;-0.22;10.24;-5.55;-3.27
3.05;2.29;4.68;9.37;-7.08;2.40
3.92;-23.52;7.84;6.97;9.04;14.48
2.29;-6.53;0.65;8.60;13.07;17.75
-0.11;11.11;3.05;-13.94;-3.92;2.40
-2.61;-1.74;3.05;2.94;-10.35;-5.66
2.29;0.65;6.21;3.81;2.50;2.40
-5.77;5.55;1.42;3.81;-5.55;2.40
-5.77;-1.74;-0.22;-2.72;5.01;7.19
-0.98;-2.50;3.05;0.54;5.77;14.48
-0.11;-0.98;-1.85;-4.25;5.77;-9.69
-0.98;3.92;-11.43;-2.72;5.01;3.16
2.29;2.29;-0.98;-4.25;5.01;2.40
2.29;-24.28;-1.85;-5.88;-8.71;-6.43
2.29;3.05;-1.85;-5.88;-2.29;-2.40
1.42;6.32;11.11;-3.48;-3.05;-9.69
23.20;6.32;-3.38;-0.22;-7.08;-10.45
-0.98;6.32;-2.61;-1.09;3.38;0.76
3.92;-1.74;-0.98;2.18;8.17;32.23
3.05;5.55;-0.98;3.81;9.80;3.16
0.65;-29.95;1.42;24.72;5.77;4.03
-0.98;-4.14;2.18;-2.72;5.77;4.79
2.29;27.22;9.47;3.81;7.41;2.40
3.05;-4.14;3.05;2.18;2.50;-5.66
3.05;-6.53;1.42;5.34;-0.65;2.40
2.29;-2.50;0.65;2.18;2.50;4.79
-1.74;-5.77;0.65;-1.09;-3.05;3.16
-2.61;-2.50;3.05;-5.12;-4.68;14.48
-5.01;-2.50;1.42;-1.09;2.50;-1.63
-1.74;-2.50;3.05;-4.25;-0.65;-0.00
-0.98;-0.98;-0.98;-1.85;5.01;2.40
3.92;3.05;-0.22;-1.09;4.14;2.40
-2.61;24.07;-2.61;-9.91;-5.55;-1.63
-5.01;1.52;-0.98;-0.22;-2.29;4.79
1.42;1.52;-5.01;-0.22;0.98;10.45
1.42;7.08;-2.61;6.97;5.01;2.40
-1.74;6.32;-6.64;2.18;0.11;12.85
1.42;1.52;-0.98;-1.85;-2.29;-9.69
-5.77;6.32;-0.98;-5.88;-5.55;-1.63
-22.76;20.04;-0.98;-30.06;-16.01;-17.75
0.65;4.68;7.08;-1.09;-19.17;-11.33
-0.98;-2.50;-25.16;0.54;-2.29;-9.69
-1.74;-3.38;0.65;-0.22;0.98;-2.40
-5.01;-4.14;3.81;-1.85;-2.29;6.43
2.29;0.65;-9.04;-1.09;5.01;2.40
2.29;-5.77;3.81;2.18;6.53;10.45
0.65;-1.74;7.84;6.97;4.14;-1.63
1.42;-0.98;1.42;0.54;5.01;-3.27
1.42;-2.50;0.65;2.18;5.01;2.40
2.29;-0.98;2.18;5.34;-15.14;4.03
3.05;-1.74;-0.22;-1.09;0.11;2.40
-0.98;-26.68;1.42;-30.06;-2.29;-0.00
2.29;0.65;-3.38;-6.75;0.98;4.79
-0.98;6.32;-0.22;-5.88;5.01;-21.78
-0.11;3.92;-0.22;-22.00;5.77;0.76
0.65;-0.98;-5.01;-0.22;5.01;-3.27
-2.61;-17.10;-6.64;2.94;3.38;2.40
-14.70;-1.74;-5.01;0.54;3.38;10.45
1.42;3.92;-0.22;-1.85;2.50;4.03
-4.14;3.92;-0.98;-5.88;-2.29;2.40
-0.11;-2.50;3.05;4.57;-9.58;-1.63
2.29;3.92;3.05;0.54;0.98;-6.43
3.05;0.65;3.81;10.24;5.01;0.76
-0.98;1.52;3.81;7.84;5.01;-0.87
0.65;-0.11;7.08;8.60;9.80;4.79
-3.38;1.52;1.42;11.00;10.56;4.79
3.05;-2.50;-0.98;-3.48;7.41;-1.63
-0.98;0.65;-0.22;11.87;5.01;2.40
-0.11;-5.01;-0.98;18.30;-18.40;8.06
10.35;-2.50;1.42;3.81;-3.92;6.43
0.65;-1.74;1.42;-4.25;3.38;5.66
2.29;-0.98;-3.38;-16.33;0.98;-9.69
3.05;29.62;-0.98;-18.84;-12.74;2.40
3.05;2.29;-28.42;-26.03;-20.80;-8.93
1.42;-11.43;-5.01;-26.90;-16.77;1.63
3.05;32.13;-4.25;-16.33;-3.92;1.63
1.42;3.92;-1.85;-14.81;-21.56;-8.06
5.44;2.29;-5.01;-4.25;-19.17;-1.63
-0.98;0.65;-1.85;-1.09;0.11;-32.23
-8.17;-7.41;-0.98;8.60;2.50;-5.66
-0.98;-4.14;-0.22;13.39;5.01;8.06
3.05;-1.74;3.05;16.66;5.01;4.79
3.05;-2.50;4.68;11.00;0.11;2.40
-4.14;-35.61;6.21;11.00;5.01;8.06
-0.98;-5.01;-1.85;3.81;9.80;-23.41
-4.14;-0.98;10.24;6.21;25.92;-0.00
-2.61;2.29;-0.98;2.18;18.62;-16.12
10.35;-1.74;3.81;3.81;9.80;-10.45
4.68;6.32;-0.22;5.34;2.50;-4.03
-26.68;6.32;3.81;2.18;-7.95;-8.93
3.05;2.29;-0.98;-1.85;-13.61;-0.87
-33.98;5.55;-2.61;0.54;-15.14;-3.27
2.29;1.52;-0.98;14.27;-19.17;-9.69
-0.98;6.32;-0.98;-13.94;-12.74;-1.63
3.05;0.65;-3.38;-6.75;0.11;2.40
2.29;5.55;-0.98;-5.12;5.01;26.57
1.42;4.68;-2.61;-1.85;9.80;1.63
-1.74;1.52;-2.61;2.94;5.01;3.16
-0.98;2.29;9.47;2.94;5.01;4.03
2.29;2.29;2.18;2.18;8.17;4.03
-3.38;3.05;0.65;0.54;7.41;2.40
-0.11;-1.74;4.68;0.54;4.14;3.16
3.05;-0.98;10.24;-1.85;-2.29;4.03
0.65;-2.50;4.68;-1.09;-5.55;1.63
2.29;1.52;1.42;-1.09;-9.58;4.79
13.50;-21.13;4.68;4.57;-8.71;0.76
-9.80;3.92;2.18;-2.72;-2.29;-1.63
-6.64;3.05;3.05;27.12;-3.92;-3.27
3.05;-0.98;1.42;2.18;-2.29;-1.63
-2.61;-1.74;3.05;2.94;-0.65;2.40
2.29;-0.98;-0.22;-3.48;3.38;6.43
2.29;-1.74;-0.98;25.48;5.01;13.72
-1.74;5.55;-0.98;-0.22;5.77;14.48
3.05;3.05;0.65;-1.09;9.04;11.22
-1.74;6.32;-0.98;1.31;6.53;-0.87
-0.11;4.68;-26.79;2.18;2.50;2.40
3.05;3.92;-15.46;0.54;-4.68;6.43
3.05;7.95;-3.38;8.60;-4.68;-4.03
3.92;0.65;19.17;1.31;-2.29;-7.30
3.05;-25.92;-0.98;-1.85;0.98;-11.33
-0.98;-5.77;3.05;-0.22;5.77;2.40
-1.74;-4.14;3.81;1.31;7.41;-0.00
3.05;-1.74;2.18;2.94;6.53;6.43
0.65;-8.17;4.68;2.18;6.53;7.19
-5.77;-2.50;3.05;-1.85;0.98;7.19
2.29;0.65;3.81;6.97;0.98;2.40
-1.74;-4.14;3.05;0.54;-3.92;-5.66
-5.77;-31.58;1.42;10.24;-12.74;-10.45
-2.61;2.29;0.65;-5.88;-20.80;-4.90
-4.14;-2.50;-0.98;-1.85;-10.35;-8.93
-0.11;0.65;-0.98;-7.51;-6.32;2.40
0.65;6.32;-0.98;6.21;0.98;1.63
0.65;-0.98;-0.98;-4.25;5.01;4.03
3.05;4.68;-2.61;-6.75;13.83;17.75
7.95;2.29;-2.61;-5.88;10.56;-3.27
3.05;4.68;-3.38;-1.85;5.01;4.79
-4.14;4.68;14.27;1.31;3.38;4.03
1.42;2.29;-0.98;-1.85;-3.05;4.03
-11.43;3.92;-0.98;11.00;-4.68;3.16
3.05;18.40;0.65;23.96;-3.92;2.40
3.05;5.55;-9.91;4.57;-6.32;-4.90
1.42;1.52;-0.98;5.34;-16.77;-14.48
5.44;0.65;4.68;8.60;-3.92;-6.43
-5.77;-2.50;4.68;9.37;-2.29;-2.40
-0.98;-5.01;0.65;6.21;0.98;2.40
0.65;-5.01;3.05;2.18;2.50;2.40
3.05;-0.98;-1.85;2.94;4.14;2.40
-0.11;-4.14;7.08;-2.72;8.17;-23.41
-1.74;-1.74;1.42;0.54;5.01;-3.27
-27.55;-25.16;4.68;12.63;9.80;-11.33
-10.67;3.05;-0.22;13.39;16.23;-2.40
-5.77;-5.77;-0.98;10.24;29.95;4.79
-2.61;-1.74;-0.98;-2.72;20.26;14.48
1.42;1.52;-0.98;9.37;18.62;15.25
3.05;1.52;-0.98;-35.72;13.83;22.54
7.08;5.55;-0.22;-14.81;-11.98;11.22
2.29;4.68;-3.38;16.66;-20.80;4.03
5.44;4.68;-0.98;-14.81;-9.58;3.16
3.05;3.05;-0.98;-14.81;-16.01;-0.87
3.05;1.52;-0.98;5.34;-20.80;-4.90
-0.98;-1.74;-5.01;-2.72;-16.77;-5.66
1.42;1.52;-0.22;11.00;0.11;-9.69
-0.11;-4.14;4.68;7.84;3.38;-1.63
-8.17;-2.50;3.05;8.60;0.11;1.63
-5.01;-6.53;-0.22;6.21;-3.92;-6.43
-2.61;-0.98;-1.85;6.97;3.38;-9.69
-0.98;2.29;0.65;3.81;-7.08;-21.78
-1.74;-9.04;-0.22;3.81;-19.17;-12.96
2.29;-1.74;-0.98;-0.22;5.01;-13.72
-2.61;-6.53;-0.22;-3.48;-15.14;-11.33
-4.14;-2.50;-0.98;-2.72;10.56;-6.43
-5.01;1.52;-0.98;-6.75;0.11;1.63
-5.01;-0.11;11.11;-1.85;5.01;5.66
3.05;6.32;-0.98;-6.75;2.50;2.40
40.95;4.68;17.53;-3.48;7.41;11.22
3.92;3.92;-3.38;-3.48;5.77;4.79
3.05;4.68;-0.98;13.39;5.01;4.03
3.05;3.92;-3.38;2.94;9.80;4.03
27.22;6.32;-0.98;2.18;7.41;15.25
-0.11;3.92;-0.98;8.60;10.56;12.85
-4.14;1.52;1.42;6.21;7.41;6.43
-0.11;-9.04;1.42;12.63;5.01;6.43
7.08;2.29;7.84;6.21;-3.05;-6.43
2.29;-4.14;6.21;3.81;-7.95;-4.90
-0.98;-2.50;3.81;14.27;-11.11;-8.06
5.44;3.92;2.18;-0.22;-7.08;-5.66
-0.98;0.65;7.84;6.21;-4.68;-8.06
3.05;6.32;2.18;11.00;4.14;-11.33
2.29;0.65;3.05;-0.22;13.07;-8.06
-0.11;2.29;-0.98;-12.31;9.80;-6.43
-0.11;2.29;-0.98;-5.88;5.01;-3.27
-0.11;-0.11;-0.98;-3.48;6.53;2.40
-5.77;3.05;-0.98;-0.22;5.01;5.66
33.65;2.29;-0.98;10.24;-8.71;0.76
30.49;13.50;-2.61;-25.26;0.11;2.40
3.05;-17.10;-3.38;-1.85;0.98;-1.63
-0.11;2.29;-3.38;-3.48;-0.65;1.63
3.92;7.08;-0.98;-4.25;0.98;1.63
-0.11;6.32;-0.98;-9.15;20.26;3.16
0.65;2.29;11.87;-4.25;-0.65;12.85
0.65;-6.53;1.42;-0.22;2.50;8.06
-1.74;-5.01;1.42;-0.22;2.50;7.19
3.05;-1.74;3.05;2.94;10.56;3.16
0.65;-6.53;4.68;-5.88;5.01;2.40
32.89;-0.98;-0.98;6.21;2.50;2.40
-7.41;-6.53;6.21;2.18;5.77;-0.00
-0.98;-6.53;-0.98;2.94;-5.55;-8.93
-0.11;-1.74;-0.98;2.94;4.14;-4.90
-4.14;-2.50;1.42;26.35;-2.29;1.63
3.05;1.52;1.42;0.54;-2.29;-1.63
-1.74;-4.14;-12.31;-9.15;-35.28;-3.27
-0.98;2.29;-5.88;-1.85;2.50;5.66
0.65;2.29;-0.98;-6.75;25.92;4.03
-1.74;6.32;-0.98;-5.88;12.20;4.79
-2.61;3.92;-5.01;-5.88;7.41;3.16
5.44;2.29;-0.22;-1.85;7.41;4.03
5.44;3.92;-0.98;0.54;2.50;4.03
3.05;3.92;-0.22;-0.22;-8.71;-4.90
1.42;2.29;-0.98;6.21;-25.59;2.40
-0.98;-21.13;4.68;6.97;4.14;2.40
3.05;2.29;1.42;8.60;5.01;2.40
-0.98;-4.14;7.84;8.60;9.04;-1.63
-0.98;2.29;6.21;37.57;5.01;6.43
2.29;-4.14;-0.98;5.34;-0.65;2.40
4.68;-7.41;0.65;9.37;7.41;-5.66
29.62;-6.53;4.68;2.18;-3.05;0.76
-0.98;-1.74;-0.22;12.63;-3.92;2.40
-6.64;-9.04;3.05;15.90;-7.08;0.76
3.05;-1.74;3.05;-14.81;-3.05;-2.40
0.65;-0.98;3.81;-7.51;-18.40;-5.66
-2.61;2.29;-0.22;-13.18;-8.71;-3.27
-1.74;0.65;-0.98;-22.87;3.38;-6.43
2.29;5.55;3.05;-25.26;5.77;-0.00
-1.74;4.68;-2.61;-18.84;5.01;10.45
0.65;6.32;-1.85;-14.81;-0.65;3.16
3.05;7.08;-9.04;-5.12;5.01;2.40
3.05;-5.77;-4.25;-0.22;7.41;-1.63
3.05;5.55;-3.38;3.81;13.07;-10.45
-0.98;16.01;-0.98;9.37;0.11;-15.35
-2.61;4.68;-0.98;13.39;0.98;-12.09
3.05;2.29;-0.98;11.00;7.41;-0.00
-8.17;-5.77;-0.98;0.54;0.98;15.25
2.29;-2.50;3.81;6.21;0.11;17.75
-0.98;-6.53;3.05;0.54;-6.32;15.25
1.42;-7.41;3.05;0.54;-5.55;17.75
3.92;-4.14;4.68;-4.25;-2.29;12.85
2.29;0.65;-0.22;0.54;5.01;-4.90
-4.14;-12.20;3.81;-1.09;-7.08;-11.33
-43.67;3.05;-0.22;-2.72;-5.55;-14.48
-20.26;0.65;-0.22;-1.09;0.98;-22.54
-4.14;11.98;0.65;-9.15;5.01;-23.41
-0.98;5.55;-0.98;-0.22;4.14;-7.30
4.68;1.52;0.65;-1.85;13.83;30.60
5.44;5.55;-1.85;-1.09;9.04;28.21
25.59;5.55;-0.98;-6.75;-5.55;29.84
7.08;6.32;-1.85;-0.22;0.98;23.30
3.92;1.52;7.84;-1.85;-7.95;4.79
-21.89;4.68;-5.01;11.87;-5.55;-4.90
1.42;6.32;-0.98;-1.85;-2.29;-12.09
-0.98;3.05;3.05;3.81;5.77;-21.02
-5.01;1.52;3.05;6.97;19.49;-12.96
-5.01;2.29;3.05;6.97;-2.29;1.63
2.29;1.52;-14.70;7.84;5.01;6.43
-0.98;-1.74;6.21;2.94;2.50;6.43
2.29;-2.50;3.05;2.94;3.38;2.40
0.65;-17.86;0.65;-1.85;4.14;2.40
-0.98;-3.38;3.05;-3.48;4.14;6.43
0.65;2.29;-0.98;-1.09;5.01;2.40
-0.98;4.68;0.65;-1.85;5.77;-4.90
-0.98;-14.59;3.05;-28.42;0.98;-10.45
14.37;-6.53;-0.22;-0.22;7.41;-23.41
0.65;0.65;-5.01;-1.85;9.04;-8.93
2.29;3.92;-3.38;-5.12;5.01;-10.45
3.05;4.68;-5.01;-5.88;-13.61;-5.66
3.05;6.32;-1.85;-8.28;-10.35;-3.27
1.42;2.29;-3.38;-2.72;-5.55;3.16
21.56;2.29;-5.01;23.96;2.50;4.03
3.05;5.55;22.32;7.84;-0.65;10.45
3.05;28.86;-0.98;3.81;-3.05;11.22
1.42;8.71;-0.22;6.97;-6.32;13.72
3.05;-0.98;-0.22;0.54;4.14;-12.96
2.29;-5.01;4.68;11.00;-0.65;35.39
-0.11;-1.74;3.05;3.81;-3.05;-6.43
0.65;-4.14;4.68;9.37;5.01;-9.69
-2.61;-4.14;-3.38;11.00;12.20;-5.66
-0.98;-4.14;6.21;8.60;9.04;-14.48
-1.74;0.65;32.02;9.37;5.01;1.63
-1.74;-1.74;3.81;6.21;-3.92;6.43
1.42;2.29;4.68;2.18;8.17;4.79
0.65;-0.98;4.68;-2.72;-3.05;2.40
-0.98;-0.98;0.65;-4.25;5.01;2.40
3.05;1.52;-0.22;-4.25;8.17;2.40
0.65;2.29;-13.94;-5.88;9.80;-0.00
2.29;27.22;-1.85;-14.81;18.62;2.40
-21.89;2.29;-0.98;-1.09;18.62;0.76
3.05;22.43;-3.38;27.12;13.83;0.76
-12.20;6.32;-1.85;-34.85;18.62;8.06
3.92;27.22;-5.01;-27.66;0.98;4.79
3.05;2.29;-3.38;3.81;-2.29;-1.63
-1.74;-6.53;-0.98;9.37;-17.53;6.43
3.92;2.29;0.65;3.81;-13.61;4.79
3.05;-2.50;1.42;6.97;-18.40;28.21
-8.17;-5.77;7.08;2.94;-21.56;-12.09
-4.14;-5.01;-0.98;0.54;-21.56;-10.45
-0.11;-2.50;3.05;-0.22;-23.20;-12.09
-21.13;-20.26;-0.98;-1.09;-21.56;1.63
0.65;-1.74;0.65;-9.15;-16.01;-4.90
3.05;6.32;-0.98;-1.09;5.01;4.79
-1.74;-5.01;0.65;-0.22;10.56;4.79
-4.14;-0.11;1.42;-1.85;15.46;16.12
1.42;2.29;3.81;-2.72;12.20;24.18
0.65;-1.74;-0.22;1.31;17.10;6.43
1.42;0.65;-0.22;2.18;5.77;-2.40
-1.74;0.65;-0.22;10.24;-3.05;-10.45
-2.61;-0.98;-1.85;9.37;-7.08;-10.45
1.42;6.32;0.65;12.63;-2.29;-12.96
3.05;6.32;-2.61;27.12;5.01;-5.66
1.42;7.95;-5.01;-22.87;6.53;0.76
4.68;5.55;-5.01;-12.31;4.14;2.40
3.05;16.77;-0.98;-14.81;15.46;11.22
3.92;0.65;-0.22;-4.25;16.23;14.48
4.68;26.46;-0.22;2.18;19.49;3.16
10.35;-10.56;4.68;1.31;10.56;3.16
3.92;3.92;1.42;6.97;14.59;4.03
1.42;-4.14;-0.98;-1.09;13.83;-2.40
-0.11;-1.74;1.42;2.94;2.50;-5.66
0.65;-21.89;3.05;-1.85;-13.61;-0.87
-4.14;-0.98;0.65;-0.22;-13.61;-23.41
0.65;-4.14;-0.98;-10.78;-17.53;4.03
-0.98;-7.41;0.65;-4.25;-16.77;-6.43
-6.64;-1.74;3.81;-1.85;-12.74;-12.96
-4.14;2.29;1.42;-5.88;-10.35;-16.12
-4.14;6.32;3.05;-7.51;-33.65;-5.66
-4.14;2.29;1.42;-2.72;-16.77;8.06
-0.98;2.29;-0.22;0.54;-2.29;11.22
3.05;-2.50;12.74;-6.75;5.01;15.25
-26.68;8.71;-1.85;0.54;16.23;12.85
3.05;11.98;-0.98;2.94;0.98;26.57
1.42;5.55;-5.01;0.54;-3.92;10.45
3.05;5.55;-1.85;-1.09;0.11;-8.06
-4.14;-24.28;-0.98;-2.72;-2.29;4.79
3.05;32.89;-1.85;11.00;0.98;1.63
0.65;4.68;-0.98;2.18;3.38;2.40
3.05;7.08;-0.98;-2.72;5.01;-0.00
3.05;-0.11;4.68;2.94;5.77;2.40
0.65;0.65;8.71;-1.09;10.56;4.03
-2.61;-4.14;7.08;-1.09;7.41;2.40
1.42;-4.14;3.05;0.54;5.01;8.06
3.05;1.52;4.68;-14.81;5.01;4.79
1.42;-5.01;5.44;2.94;5.01;6.43
1.42;0.65;6.21;2.94;5.01;-9.69
-0.98;-0.98;7.84;1.31;-2.29;-21.02
-4.14;-5.77;9.47;-1.09;-7.08;20.91
-2.61;-0.98;2.18;-1.85;-20.80;-1.63
-0.11;0.65;-6.64;2.18;0.98;-0.00
11.98;6.32;-2.61;-1.09;0.11;2.40
3.05;21.56;-2.61;-24.39;4.14;2.40
1.42;2.29;-0.98;-0.22;7.41;-19.38
3.05;7.08;-5.01;-1.85;17.10;-9.69
1.42;2.29;-4.25;2.18;17.86;-21.78
-0.98;0.65;-0.98;2.94;7.41;-8.93
3.05;6.32;-1.85;6.97;9.04;-8.06
2.29;2.29;-0.98;2.94;5.01;-2.40
-0.98;-2.50;-0.98;2.18;-4.68;4.03
3.05;-1.74;-0.98;6.97;-7.08;3.16
-4.14;-5.01;-0.22;-1.09;-8.71;2.40
-17.10;-5.77;3.05;3.81;-20.04;0.76
3.05;2.29;1.42;-13.18;-28.10;1.63
-0.98;-2.50;3.05;-1.85;-32.13;-2.40
-5.77;5.55;2.18;-14.81;-22.43;-2.40
-4.14;-7.41;1.42;-7.51;-8.71;2.40
3.05;-4.14;2.18;-7.51;4.14;9.69
0.65;-5.77;3.05;-5.12;6.53;4.03
1.42;-0.98;-0.98;-9.15;5.01;2.40
2.29;0.65;-2.61;-4.25;9.04;7.19
3.92;0.65;-5.01;0.54;9.80;-17.75
2.29;6.32;-5.01;2.18;7.41;1.63
1.42;2.29;-2.61;3.81;5.01;-8.93
3.05;6.32;-1.85;11.00;8.17;19.28
3.92;2.29;-26.79;9.37;9.80;2.40
-13.83;-1.74;-1.85;11.00;10.56;2.40
-0.98;-4.14;-0.98;2.94;6.53;4.79
-0.11;1.52;1.42;-0.22;5.77;13.72
3.05;3.05;3.81;2.94;5.77;3.16
11.11;0.65;0.65;3.81;5.01;-0.87
-4.14;-3.38;1.42;2.94;4.14;-4.90
3.05;-1.74;3.05;1.31;3.38;-4.90
21.56;2.29;1.42;6.21;-3.05;10.45
-0.98;-0.98;-15.46;11.00;-8.71;-6.43
3.05;-2.50;6.21;16.66;5.01;-11.33
-4.14;-1.74;7.08;11.00;0.98;-18.51
-0.11;-5.01;4.68;-4.25;-18.40;-2.40
-4.14;-11.43;-0.22;-10.78;0.98;6.43
-0.98;-0.98;-1.85;-13.94;4.14;7.19
0.65;3.92;-0.98;-19.60;-15.14;4.03
3.05;3.92;-0.98;-9.15;0.11;4.03
0.65;6.32;-1.85;-5.88;7.41;2.40
3.05;15.14;-3.38;-0.22;6.53;2.40
6.32;2.29;-8.28;-1.09;6.53;-1.63
4.68;2.29;-21.89;3.81;0.11;-17.75
3.92;4.68;-2.61;11.00;0.11;2.40
3.05;5.55;-0.98;13.39;-5.55;-8.93
-7.41;2.29;-1.85;6.97;-12.74;-13.72
-27.55;7.08;-0.98;2.18;-12.74;-9.69
2.29;2.29;3.81;-4.25;-8.71;-2.40
0.65;-15.46;0.65;-4.25;9.04;11.22
0.65;2.29;0.65;-3.48;6.53;5.66
1.42;-4.14;0.65;-5.88;5.77;0.76
-0.98;-5.77;-8.28;-4.25;5.77;2.40
2.29;-4.14;11.11;-1.85;-3.92;4.79
-1.74;-2.50;6.21;-1.09;-6.32;-6.43
-0.11;-2.50;4.68;3.81;-3.92;-10.45
-4.14;-6.53;1.42;0.54;-15.14;-6.43
-10.67;-0.98;-0.98;3.81;-10.35;5.66
11.98;3.05;-13.07;6.97;-3.92;4.79
-21.13;6.32;-0.98;0.54;-3.92;3.16
2.29;7.08;-4.25;-0.22;-0.65;-8.06
-0.98;6.32;-4.25;-4.25;-7.08;-5.66
3.05;6.32;-15.46;-2.72;5.01;-5.66
3.05;6.32;-0.98;2.94;18.62;0.76
-5.01;-2.50;1.42;-14.81;18.62;-6.43
0.65;-4.14;-0.22;-3.48;12.20;-12.96
-4.14;0.65;26.35;-1.09;9.80;-21.78
-0.11;-5.01;0.65;2.94;0.11;-26.57
3.05;-13.83;2.18;0.54;-5.55;12.85
3.05;-0.98;3.81;8.60;-8.71;25.81
3.05;0.65;0.65;6.97;-5.55;28.21
1.42;3.92;7.84;6.21;-4.68;16.88
-5.77;-4.14;-11.43;0.54;-12.74;-16.12
-1.74;-1.74;10.24;2.18;5.01;4.03
-1.74;-1.74;4.68;2.94;17.10;-0.00
0.65;-4.14;9.47;-0.22;29.19;-4.90
-1.74;3.92;-0.98;-9.91;6.53;-6.43
-0.98;2.29;-1.85;-5.88;5.77;-1.63
-2.61;2.29;-0.98;-6.75;0.98;-6.43
2.29;7.08;-5.01;-34.85;-3.92;-5.66
2.29;43.34;-5.01;-14.81;-5.55;-3.27
-1.74;6.32;-8.28;-4.25;-6.32;-1.63
3.05;6.32;-3.38;-1.85;-16.77;-2.40
3.05;6.32;-3.38;0.54;12.20;-4.90
1.42;5.55;-0.98;2.18;-6.32;-1.63
2.29;-0.11;-9.91;2.94;-3.05;-4.90
3.92;4.68;24.83;6.97;5.77;-0.00
3.05;-1.74;-0.22;36.05;5.77;3.16
3.05;18.40;3.05;11.00;5.01;-0.87
2.29;-6.53;3.05;7.84;0.98;2.40
-28.31;-2.50;7.84;6.21;-3.05;3.16
-0.98;3.05;7.84;-1.09;4.14;4.79
3.05;-1.74;0.65;-15.57;4.14;10.45
-1.74;-1.74;5.44;0.54;7.41;2.40
-0.98;1.52;-0.98;-1.85;9.04;-25.05
-4.14;-3.38;4.68;-0.22;5.77;4.79
-4.14;2.29;2.18;-2.72;5.01;-8.93
-1.74;3.92;-0.22;-1.09;-3.05;-10.45
-1.74;5.55;-1.85;-1.85;0.98;8.06
3.05;3.92;-5.01;-1.09;4.14;4.03
3.05;6.32;-5.01;-1.85;5.01;2.40
3.05;7.95;-3.38;-1.85;-0.65;4.03
0.65;5.55;-5.01;5.34;0.98;-1.63
3.05;3.05;0.65;12.63;0.11;-0.00
3.05;36.15;-0.98;23.09;4.14;3.16
4.68;0.65;0.65;13.39;-0.65;2.40
6.32;-1.74;-0.22;6.21;9.04;3.16
3.05;-0.98;3.05;-18.84;5.01;2.40
3.05;-4.14;0.65;-9.91;4.14;1.63
-0.98;-5.77;-0.98;-23.63;-10.35;-2.40
3.05;-0.98;1.42;-17.97;-18.40;-6.43
1.42;10.35;3.05;-9.15;-18.40;-1.63
0.65;-6.53;4.68;-6.75;-24.83;-1.63
-7.41;-2.50;-0.98;-3.48;-18.40;-3.27
-5.77;-5.01;6.21;-0.22;-2.29;-3.27
-7.41;-6.53;1.42;13.39;-5.55;-11.33
1.42;-4.14;1.42;14.27;-5.55;-0.00
-9.04;-27.55;3.05;26.35;4.14;-3.27
2.29;-0.98;-0.98;2.18;9.80;-8.93
3.05;3.05;-5.01;-1.85;16.23;3.16
-0.11;2.29;-2.61;-9.91;17.86;2.40
-12.20;3.92;-8.28;-9.91;18.62;2.40
2.29;32.13;-3.38;-3.48;22.65;3.16
6.32;3.05;-8.28;-26.90;17.86;-0.87
-4.14;3.92;15.90;1.31;6.53;-30.60
-13.07;3.05;-0.98;-0.22;-2.29;0.76
0.65;0.65;-0.22;2.18;-16.01;2.40
3.92;-4.14;0.65;2.18;-16.77;7.19
16.01;11.98;1.42;12.63;-8.71;6.43
1.42;-1.74;-21.13;5.34;2.50;6.43
3.05;-10.56;4.68;-1.85;7.41;4.79
-0.98;-0.98;3.81;-0.22;29.95;2.40
3.05;-6.53;7.84;0.54;5.01;4.79
-0.98;2.29;3.05;-0.22;5.01;5.66
-5.01;-3.38;8.71;-1.85;2.50;12.85
19.17;-0.98;7.08;-2.72;21.89;-0.00
-11.43;-2.50;7.08;-1.85;3.38;-0.00
3.05;-4.14;-0.98;0.54;-4.68;-7.30
-1.74;-0.98;-0.22;5.34;-11.11;-8.93
-3.38;5.55;-0.98;1.31;-8.71;-4.90
-2.61;2.29;-5.88;-1.85;-6.32;-30.60
-0.11;6.32;-9.04;-1.85;0.98;-0.87
0.65;3.92;-6.64;2.18;5.01;-5.66
4.68;-0.98;-1.85;1.31;7.41;-1.63
3.92;-0.98;-5.01;-0.22;9.80;-1.63
-5.77;-4.14;-0.98;-4.25;11.43;4.03
3.05;4.68;-0.98;16.66;13.83;3.16
3.92;4.68;23.96;2.94;13.83;2.40
3.05;4.68;-0.22;2.18;3.38;2.40
-0.11;1.52;1.42;-1.09;-10.35;0.76
-2.61;1.52;3.81;-34.85;-16.01;-2.40
-1.74;-3.38;1.42;-1.09;-16.77;-5.66
-2.61;0.65;3.05;-5.88;-19.17;-4.90
-5.01;-3.38;11.87;-3.48;-8.71;0.76
-0.98;0.65;-9.91;-1.85;2.50;10.45
-2.61;-6.53;2.18;3.81;9.80;4.79
-7.41;-14.59;-0.22;-1.85;13.07;3.16
-0.11;1.52;-0.98;-6.75;7.41;-4.90
3.05;4.68;-0.98;5.34;-3.05;1.63
3.05;2.29;-2.61;-1.85;5.01;0.76
-5.01;6.32;-0.98;-0.22;0.98;-17.75
2.29;6.32;-1.85;3.81;2.50;2.40
4.68;7.08;-2.61;0.54;8.17;2.40
-18.73;2.29;-0.98;-3.48;0.11;12.09
0.65;2.29;-0.98;-9.15;-8.71;6.43
5.44;3.92;-0.22;-1.09;-7.08;0.76
-0.98;20.04;-0.98;0.54;4.14;-9.69
-1.74;2.29;-0.98;5.34;5.01;-5.66
-5.01;3.92;-0.22;4.57;13.07;-8.93
-0.98;2.29;-0.98;0.54;13.07;-1.63
-1.74;-4.14;1.42;-2.72;21.89;-2.40
3.05;-19.49;-0.98;-1.09;0.98;2.40
-0.98;-0.98;7.84;-0.22;-6.32;2.40
-5.77;-0.98;3.81;-2.72;-8.71;-23.41
15.14;0.65;4.68;6.97;-2.29;1.63
-4.14;-4.14;4.68;-5.88;-10.35;-2.40
-5.77;-5.01;1.42;-6.75;-2.29;-1.63
-22.76;-0.11;-1.85;-19.60;-16.77;-0.00
-0.98;-2.50;-9.04;-6.75;-7.95;-0.87
16.01;3.92;-1.85;16.66;5.01;3.16
-9.04;4.68;-0.98;1.31;13.83;7.19
-7.41;3.92;-3.38;29.51;13.83;10.45
2.29;6.32;-0.98;16.66;14.59;4.03
3.05;1.52;-4.25;8.60;13.07;14.48
-0.98;-0.98;-0.98;2.18;9.04;6.43
-20.26;-4.14;3.05;-9.91;3.38;2.40
3.05;-4.14;2.18;-13.18;-13.61;-16.12
0.65;-9.80;1.42;-15.57;-15.14;-8.06
2.29;-1.74;1.42;-7.51;-26.46;-6.43
3.05;-0.98;4.68;-5.88;-16.01;2.40
3.05;-2.50;3.81;2.18;0.11;6.43
-22.76;-4.14;1.42;5.34;-2.29;2.40
3.05;4.68;2.18;20.69;5.01;2.40
4.68;-2.50;7.84;21.45;16.23;1.63
1.42;-3.38;11.87;15.03;21.13;-8.93
-1.74;-2.50;23.96;11.00;17.10;-11.33
-5.77;3.05;0.65;-0.22;16.23;-12.09
5.44;23.20;1.42;-1.85;17.10;-8.06
0.65;6.32;-3.38;-9.91;5.01;-0.00
-5.77;2.29;-1.85;-5.88;13.83;16.12
1.42;13.50;-2.61;-13.18;-3.05;4.03
28.86;8.71;-5.88;-12.31;-2.29;-5.66
3.05;-14.59;-6.64;-1.85;-7.08;2.40
3.05;6.32;-4.25;26.35;-11.98;8.06
3.05;-3.38;-3.38;2.18;-35.28;9.69
-21.89;-0.98;-1.85;2.94;-33.65;-12.96
2.29;-2.50;-1.85;1.31;-21.56;2.40
2.29;-4.14;-0.22;5.34;-10.35;2.40
-0.98;-4.14;1.42;-0.22;-8.71;3.16
-21.13;-0.98;-0.98;-2.72;-9.58;2.40
-5.01;-19.49;-0.98;-6.75;-0.65;3.16
-8.17;13.50;0.65;10.24;5.01;2.40
-1.74;5.55;6.21;8.60;6.53;-4.90
-1.74;32.13;5.44;3.81;3.38;0.76
-2.61;-2.50;7.08;11.87;14.59;-5.66
-7.41;-6.53;3.05;-4.25;12.20;-5.66
-5.77;-5.01;3.05;2.94;12.20;4.03
-0.11;0.65;3.05;-1.09;-3.05;11.22
3.05;0.65;4.68;0.54;9.80;-7.30
-4.14;2.29;-0.98;0.54;5.77;-2.40
5.44;6.32;-0.98;2.18;14.59;1.63
7.08;6.32;-0.98;0.54;-0.65;4.79
4.68;6.32;-6.64;2.18;-3.05;2.40
10.35;4.68;-0.22;3.81;2.50;2.40
3.05;-0.98;-2.61;2.18;5.01;2.40
-28.31;2.29;-0.22;0.54;2.50;2.40
2.29;3.92;-14.70;0.54;2.50;23.30
3.05;-0.98;-0.22;-2.72;-5.55;-5.66
-0.98;-4.14;-0.98;0.54;-7.08;-9.69
-0.98;-0.98;6.21;-4.25;-8.71;-1.63
3.05;0.65;-0.98;-0.22;0.98;2.40
2.29;-2.50;-0.98;3.81;0.98;-0.00
3.05;-1.74;3.05;-3.48;-4.68;2.40
0.65;-5.01;3.81;-9.15;-7.08;-2.40
1.42;-5.77;-9.04;-5.88;-12.74;-1.63
2.29;-5.01;-3.38;-4.25;-7.95;-1.63
-10.67;-0.98;-0.98;-3.48;-4.68;-0.00
-0.98;4.68;3.05;-1.85;-6.32;2.40
3.92;4.68;-0.98;-4.25;-5.55;-0.00
-0.98;5.55;-0.98;-1.85;0.11;-15.35
2.29;9.47;-5.88;1.31;2.50;-0.00
26.46;-2.50;-2.61;5.34;5.01;2.40
2.29;5.55;-11.43;2.94;5.77;8.06
-0.98;5.55;-1.85;0.54;5.01;-0.00
2.29;4.68;11.87;0.54;6.53;-1.63
3.05;6.32;-0.98;6.21;7.41;1.63
2.29;2.29;1.42;-1.85;4.14;-0.00
3.05;-0.98;7.08;-1.09;6.53;-4.90
3.05;-2.50;19.93;-1.85;5.01;0.76
0.65;-5.77;3.05;4.57;7.41;-0.00
-2.61;2.29;24.83;6.21;7.41;2.40
-4.14;6.32;5.44;11.00;5.01;12.09
-5.01;-6.53;9.47;10.24;-9.58;17.75
-5.01;-5.01;7.84;9.37;-5.55;13.72
-1.74;-6.53;5.44;2.18;-9.58;8.06
0.65;-1.74;-0.98;-0.22;5.01;-12.09
-0.11;15.14;-0.98;-12.31;9.04;3.16
3.05;-4.14;-0.98;26.35;5.01;0.76
3.05;-9.80;-0.98;-10.78;5.01;-5.66
11.98;3.92;-0.98;-1.09;-7.95;-17.75
1.42;13.50;-1.85;28.75;-7.95;-14.48
1.42;6.32;-3.38;8.60;-7.08;-16.12
-0.98;0.65;-3.38;2.18;-7.95;-11.33
0.65;5.55;-28.42;-9.15;-13.61;-10.45
-5.77;3.05;-0.98;-13.18;-24.83;-3.27
-1.74;5.55;-7.41;-14.81;-8.71;4.03
-0.98;0.65;-1.85;-12.31;0.98;18.51
3.05;16.77;-0.98;-5.12;-0.65;10.45
4.68;-2.50;-0.22;-5.88;2.50;16.12
3.05;-5.01;-0.98;-1.09;6.53;6.43
4.68;0.65;1.42;3.81;5.77;2.40
-11.43;-11.43;-0.98;9.37;-4.68;-4.90
-2.61;-5.01;1.42;1.31;5.77;3.16
3.05;-2.50;3.81;6.21;-2.29;0.76
3.05;-0.98;4.68;0.54;-6.32;-4.03
13.50;6.32;7.08;-0.22;30.71;-18.51
-4.14;-2.50;3.05;2.94;7.41;-10.45
-2.61;1.52;-5.88;-1.85;8.17;-2.40
0.65;3.05;-0.98;3.81;5.01;-0.87
-0.98;4.68;-2.61;6.97;6.53;-4.90
3.92;7.08;-2.61;6.21;1.74;8.06
3.05;6.32;-2.61;7.84;-7.95;4.03
3.05;42.58;-8.28;-3.48;-22.43;-3.27
3.05;4.68;-2.61;1.31;-9.58;-6.43
0.65;1.52;-1.85;-1.85;0.98;-1.63
-13.07;3.92;-3.38;0.54;-8.71;3.16
3.05;-1.74;23.96;1.31;9.04;6.43
0.65;-21.89;-0.98;-1.85;7.41;20.91
3.05;-0.98;-0.98;-1.09;22.65;3.16
2.29;-2.50;1.42;-1.09;4.14;2.40
-1.74;-0.98;3.05;3.81;0.11;2.40
-0.98;1.52;1.42;23.09;5.01;2.40
-1.74;-1.74;7.08;11.00;18.62;-10.45
-0.11;-5.77;9.47;-1.85;17.86;-12.96
-5.01;3.92;6.21;-1.85;-0.65;-15.35
-28.31;-4.14;6.21;-1.85;-3.05;-8.93
-32.34;-0.98;1.42;-11.54;-31.25;-8.93
-0.98;-6.53;1.42;-9.91;-11.98;-23.41
-0.98;-0.98;13.50;-9.15;-5.55;6.43
3.05;0.65;-0.98;-14.81;3.38;20.15
5.44;-9.04;-2.61;-3.48;5.01;28.97
7.95;4.68;-4.25;-1.85;0.11;9.69
3.05;7.08;-2.61;1.31;-2.29;2.40
2.29;-0.98;-2.61;2.94;-20.80;-4.90
34.52;5.55;-3.38;29.51;6.53;5.66
0.65;-1.74;0.65;2.94;16.23;28.21
3.05;-1.74;-0.22;-1.09;-9.58;1.63
-6.64;-2.50;-0.22;4.57;-1.52;-3.27
16.77;-4.14;-0.98;-3.48;-9.58;-11.33
-0.98;-1.74;1.42;0.54;-15.14;-12.96
-0.98;-1.74;-0.98;-3.48;-16.77;-15.35
-2.61;2.29;-0.98;1.31;-0.65;-2.40
-4.14;-4.14;3.81;10.24;5.01;-5.66
-5.01;-2.50;9.47;2.94;5.01;-7.30
-0.98;-3.38;-0.98;1.31;7.41;-21.78
-0.98;3.05;2.18;-0.22;5.77;2.40
-4.14;6.32;1.42;-1.85;9.80;2.40
-4.14;5.55;1.42;-4.25;1.74;4.79
3.92;0.65;0.65;-4.25;3.38;6.43
3.92;4.68;-0.98;-7.51;-7.08;-23.41
3.05;1.52;-3.38;-6.75;-7.95;0.76
-1.74;5.55;-5.01;-1.85;0.11;4.03
11.11;1.52;-18.73;-0.22;4.14;33.00
3.05;-19.49;-0.98;3.81;11.43;4.79
3.05;2.29;-1.85;6.97;5.01;-14.48
3.05;1.52;-0.98;5.34;5.01;-0.00
3.05;6.32;1.42;6.97;2.50;1.63
1.42;-0.98;-0.98;6.21;4.14;0.76
-0.98;-3.38;3.81;8.60;15.46;0.76
3.05;-3.38;-0.22;9.37;15.46;1.63
-1.74;-2.50;1.42;7.84;9.80;2.40
3.05;-2.50;1.42;-0.22;5.01;1.63
2.29;5.55;-0.22;-1.85;1.74;12.09
1.42;10.35;8.71;1.31;-18.40;-0.00
1.42;1.52;3.05;-0.22;0.11;-1.63
0.65;-3.38;1.42;-1.85;-5.55;4.79
2.29;1.52;8.71;-0.22;-2.29;1.63
3.05;3.92;3.81;41.60;18.62;11.22
-0.11;-11.43;-0.98;6.21;2.50;13.72
3.05;4.68;-1.85;-1.85;-11.98;4.03
2.29;2.29;-3.38;-2.72;-16.01;-1.63
0.65;4.68;-3.38;2.18;5.77;-11.33
2.29;2.29;-4.25;-1.85;16.23;-10.45
-0.98;-2.50;9.47;-1.85;2.50;-10.45
-33.98;1.52;-0.98;-22.87;-8.71;-12.09
-2.61;27.22;-3.38;3.81;-21.56;-10.45
0.65;-1.74;-9.91;11.00;-23.20;-5.66
1.42;5.55;-8.28;2.94;-18.40;-5.66
0.65;7.08;1.42;-1.85;-15.14;2.40
2.29;-9.04;1.42;-11.54;-11.11;2.40
-40.40;0.65;2.18;-1.85;-5.55;-0.87
-0.98;-3.38;-22.76;-14.81;-5.55;2.40
-2.61;-3.38;3.81;-9.15;-2.29;28.97
-0.11;25.59;6.21;-4.25;0.98;8.06
2.29;-2.50;10.24;2.94;5.01;19.28
-0.98;-1.74;3.81;0.54;8.17;22.54
-0.98;-0.98;0.65;2.94;5.01;11.22
-13.83;-1.74;-0.22;26.35;13.83;-0.00
-6.64;-20.26;-3.38;11.00;17.86;-0.87
-8.17;11.98;-4.25;6.97;17.10;-10.45
3.05;1.52;-4.25;3.81;5.01;-21.78
3.05;7.95;-2.61;-1.09;0.98;-14.48
2.29;6.32;-3.38;2.18;5.01;-12.09
1.42;-4.14;-0.98;-1.85;5.01;-10.45
3.05;5.55;-0.98;11.87;-12.74;-0.00
3.05;1.52;-0.98;0.54;9.04;-4.90
-0.98;0.65;-0.98;5.34;10.56;-0.00
-4.14;-28.31;1.42;0.54;9.04;8.82
-10.67;0.65;0.65;2.18;25.16;12.09
16.77;1.52;-0.98;3.81;9.04;3.16
2.29;-5.77;-0.98;-0.22;-2.29;-21.02
-9.80;-11.43;-0.22;0.54;-3.92;-6.43
-0.98;-9.80;3.81;-30.82;-6.32;3.16
3.05;-6.53;5.44;-1.85;-18.40;14.48
-2.61;-0.98;12.74;-1.09;-16.77;6.43
-0.98;-1.74;9.47;-2.72;-7.95;9.69
0.65;-3.38;4.68;-0.22;-20.04;0.76
-0.98;-3.38;4.68;-4.25;-6.32;3.16
7.95;33.65;1.42;-16.33;4.14;2.40
-17.86;1.52;-1.85;-1.09;2.50;-4.90
0.65;6.32;-4.25;-4.25;0.11;-11.33
2.29;6.32;-0.98;-1.85;-3.92;-5.66
3.05;3.92;-5.01;-8.28;-10.35;-1.63
1.42;6.32;-2.61;-2.72;-11.11;1.63
33.65;6.32;-0.98;16.66;0.98;9.69
2.29;3.92;-0.98;-2.72;9.80;12.09
2.29;4.68;-0.22;0.54;8.17;2.40
-1.74;0.65;-0.98;6.97;6.53;-1.63
3.05;-0.98;-0.98;11.00;-3.05;-8.93
-4.14;-0.98;3.81;10.24;2.50;-4.90
0.65;-29.19;-0.98;8.60;9.80;0.76
3.05;-4.14;-0.98;-0.22;6.53;-12.96
-4.14;-1.74;-0.22;-7.51;0.98;-20.15
-0.98;-2.50;3.81;-1.85;-3.92;-11.33
-9.04;-7.41;-0.98;-7.51;-7.08;4.03
-0.98;-6.53;-9.04;-5.88;-8.71;14.48
0.65;-5.01;0.65;-9.15;-1.52;16.12
24.83;-4.14;-0.98;-9.15;-10.35;8.06
-1.74;3.92;-0.22;-1.09;-2.29;4.03
2.29;6.32;-5.88;2.18;5.01;2.40
3.05;6.32;12.74;6.21;7.41;12.85
3.05;6.32;-2.61;2.18;5.01;2.40
3.92;6.32;-1.85;0.54;3.38;0.76
3.05;6.32;-1.85;-0.22;0.11;-9.69
-25.16;6.32;-0.98;1.31;-3.05;-8.93
0.65;11.98;-0.22;-12.31;-7.08;-9.69
-0.98;-5.01;-0.98;-3.48;-8.71;10.45
4.68;3.92;-0.98;2.18;1.74;6.43
3.92;1.52;3.05;3.81;5.01;25.81
3.92;3.05;3.81;0.54;5.01;11.22
8.71;-1.74;3.05;3.81;19.49;12.85
1.42;-6.53;-18.73;6.21;5.01;5.66
-12.20;17.53;2.18;-5.88;17.86;8.06
1.42;-0.98;4.68;22.32;1.74;3.16
-4.14;5.55;4.68;0.54;5.01;1.63
0.65;-6.53;11.11;-9.15;8.17;2.40
2.29;3.05;3.05;15.03;0.11;-0.87
-0.11;1.52;4.68;-5.12;-2.29;-6.43
0.65;-9.04;-0.22;-4.25;-3.05;2.40
2.29;4.68;-3.38;-3.48;-3.05;4.79
0.65;6.32;-25.92;-1.09;0.98;-4.90
1.42;8.71;-3.38;-5.12;-5.55;11.22
3.05;7.08;8.71;-1.85;-3.92;-4.90
-7.41;3.92;-9.04;-1.85;4.14;2.40
-5.01;-6.53;-6.64;-1.85;17.86;0.76
-0.98;-1.74;-5.88;-0.22;21.89;0.76
32.89;36.92;-0.98;31.15;29.19;2.40
2.29;-2.50;-10.67;5.34;20.26;2.40
7.95;6.32;24.83;2.18;9.04;-1.63
-27.55;14.37;2.18;-10.78;-10.35;-8.93
-0.11;-2.50;2.18;2.18;-20.80;-11.33
-4.14;-1.74;-14.70;3.81;-16.01;-8.06
7.95;-1.74;-0.22;-9.91;-16.77;-10.45
-8.17;-4.14;4.68;5.34;-20.80;2.40
0.65;0.65;4.68;2.94;-15.14;13.72
3.05;7.95;8.71;5.34;-7.08;12.09
-0.98;-0.98;3.05;-1.85;0.11;14.48
3.05;1.52;3.81;-1.85;2.50;8.06
-1.74;-4.14;-0.98;-0.22;7.41;28.21
-14.70;21.56;-1.85;2.94;9.04;-0.00
1.42;6.32;-3.38;-2.72;2.50;-5.66
-0.98;11.11;-11.43;-1.09;-3.05;-0.87
3.05;6.32;-5.88;-14.81;-5.55;-4.90
2.29;4.68;23.96;0.54;-7.08;-7.30
-0.11;-2.50;-0.98;-3.48;-13.61;-1.63
1.42;-5.01;-2.61;-7.51;-3.92;2.40
11.11;-0.98;1.42;-5.88;4.14;-0.00
3.05;4.68;1.42;-2.72;5.01;2.40
-4.14;-7.41;1.42;-1.85;5.01;-5.66
-11.43;-5.77;-0.22;-1.85;5.01;-0.87
2.29;-3.38;-0.98;-11.54;7.41;4.79
-1.74;2.29;-0.98;8.60;6.53;10.45
0.65;1.52;4.68;38.44;0.98;10.45
-0.11;-4.14;4.68;11.00;-3.92;13.72
3.05;-10.56;3.81;28.75;-3.05;2.40
-7.41;-21.13;1.42;-13.94;0.98;-2.40
-0.98;-2.50;7.84;-5.88;4.14;-2.40
-0.98;0.65;-0.98;-9.15;2.50;-2.40
-7.41;2.29;-0.98;2.18;4.14;-6.43
3.05;8.71;0.65;-9.91;3.38;10.45
3.05;0.65;-5.01;-2.72;5.01;2.40
-0.11;6.32;-8.28;-0.22;2.50;-0.87
-0.98;6.32;-4.25;2.94;1.74;0.76
3.05;6.32;-1.85;8.60;0.11;-8.06
39.31;-0.98;-0.98;11.00;0.98;-2.40
3.05;-5.77;-3.38;6.97;-3.05;2.40
3.05;-0.98;2.18;2.94;-9.58;2.40
0.65;1.52;-0.98;2.94;1.74;2.40
3.05;-2.50;-0.22;2.18;5.01;0.76
-2.61;-1.74;0.65;-0.22;-5.55;-5.66
3.05;-5.01;1.42;3.81;4.14;-1.63
-0.11;-7.41;0.65;5.34;5.01;3.16
-8.17;-2.50;4.68;1.31;17.10;4.03
0.65;-3.38;4.68;-2.72;2.50;14.48
-6.64;-3.38;7.84;2.18;2.50;2.40
-25.16;-1.74;7.84;2.18;-2.29;1.63
-7.41;-5.01;7.08;-1.09;5.01;-0.00
-0.98;-1.74;3.81;-5.88;-6.32;-1.63
-5.01;3.05;0.65;-6.75;-4.68;-3.27
1.42;6.32;-3.38;-1.85;6.53;-2.40
0.65;5.55;-0.98;0.54;7.41;-6.43
1.42;4.68;-4.25;-5.88;-0.65;-8.93
-1.74;6.32;-6.64;0.54;-0.65;-2.40
2.29;6.32;-13.94;0.54;0.98;3.16
3.05;3.92;-0.98;-0.22;-5.55;26.57
-1.74;4.68;-1.85;-2.72;-16.01;1.63
0.65;3.92;11.87;3.81;-6.32;2.40
3.05;2.29;-0.98;3.81;-2.29;7.19
-13.83;-6.53;-0.98;-0.22;1.74;6.43
2.29;-5.77;-0.98;-1.85;5.01;3.16
6.32;-5.01;0.65;2.94;5.01;-0.00
1.42;1.52;-0.22;-1.09;4.14;-1.63
-1.74;-5.01;-0.98;-1.09;5.77;-1.63
-5.77;-6.53;3.81;-1.09;6.53;-9.69
-0.98;-3.38;3.81;6.21;15.46;-4.90
-15.46;-0.98;4.68;5.34;12.20;9.69
-6.64;-2.50;2.18;-1.85;28.31;9.69
-1.74;4.68;3.81;9.37;5.77;12.85
-0.98;5.55;0.65;11.00;6.53;25.81
1.42;7.95;-15.46;6.21;5.77;2.40
3.05;3.92;-1.85;1.31;-7.08;-14.48
3.05;5.55;-3.38;-4.25;-7.95;-21.78
3.05;7.08;-3.38;-38.11;-24.07;-10.45
1.42;0.65;-0.98;-12.31;-7.08;-10.45
-1.74;-1.74;-1.85;-10.78;-3.05;-9.69
-1.74;-11.43;-5.01;-13.94;0.98;-6.43
-0.98;1.52;-0.98;-2.72;6.53;-6.43
-4.14;6.32;-2.61;-9.15;3.38;-1.63
2.29;-4.14;-0.22;2.18;5.01;-1.63
-7.41;-4.14;3.05;6.21;5.01;4.03
-4.14;-8.17;-0.22;11.00;5.01;2.40
-5.77;-3.38;-22.76;5.34;5.01;23.30
0.65;-11.43;1.42;8.60;-3.05;2.40
-5.77;18.40;2.18;34.41;-13.61;4.03
-30.71;-1.74;6.21;2.94;-10.35;3.16
-0.98;1.52;0.65;0.54;-16.01;3.16
-4.14;0.65;2.18;0.54;-20.04;-0.00
0.65;21.56;-0.98;8.60;-16.01;2.40
-2.61;3.05;-0.98;-0.22;-15.14;4.03
-19.49;3.05;-3.38;-28.42;3.38;4.03
5.44;4.68;-2.61;-1.85;5.77;-0.87
3.92;18.40;-5.88;2.18;5.01;1.63
3.05;2.29;-1.85;-4.25;5.01;-5.66
4.68;3.92;-0.98;0.54;6.53;-2.40
3.05;6.32;-0.98;0.54;9.80;-1.63
1.42;3.92;-5.01;8.60;1.74;1.63
-0.98;-1.74;-0.22;6.21;0.98;0.76
-0.98;-19.49;1.42;-0.22;1.74;2.40
-0.98;3.92;1.42;0.54;-11.98;2.40
-1.74;-0.98;7.84;2.94;0.98;6.43
-1.74;-5.01;1.42;0.54;4.14;11.22
-10.67;-2.50;0.65;2.18;4.14;-10.45
-0.98;-0.98;10.24;-2.72;0.11;-16.12
-1.74;-5.01;4.68;-2.72;0.98;-6.43
-2.61;-8.17;7.08;-5.12;5.01;3.16
20.04;-0.98;7.08;-0.22;5.01;4.79
3.05;-4.14;4.68;-3.48;0.11;8.06
16.01;0.65;3.05;0.54;-4.68;6.43
4.68;-0.98;-3.38;-1.85;-6.32;11.22
-4.14;2.29;-5.88;-3.48;1.74;1.63
-2.61;3.92;-26.79;-1.09;0.98;-16.12
5.44;6.32;-6.64;14.27;5.01;-8.93
1.42;6.32;-3.38;6.21;7.41;-4.90
1.42;3.92;-0.98;-0.22;5.77;-2.40
3.05;2.29;-5.01;-2.72;0.11;20.91
1.42;1.52;-3.38;6.97;-6.32;27.33
-12.20;-8.17;-0.22;12.63;2.50;7.19
3.92;2.29;-17.86;3.81;-7.95;4.79
-0.11;0.65;-15.46;-1.85;-7.08;3.16
-1.74;-0.98;-0.22;-13.18;9.04;2.40
2.29;-0.98;7.84;-13.94;2.50;-0.87
-1.74;3.05;0.65;-13.18;5.01;-0.00
3.92;-1.74;7.08;-12.31;0.98;29.84
2.29;-12.20;4.68;-26.90;5.01;2.40
3.05;-2.50;5.44;-1.85;9.80;-0.00
-2.61;-27.55;3.81;-10.78;9.04;-4.90
-0.98;0.65;3.05;9.37;5.01;-5.66
-0.98;0.65;-5.01;11.00;-2.29;-8.06
-5.01;0.65;-0.98;11.00;-6.32;-3.27
-1.74;3.92;-1.85;4.57;-5.55;2.40
-0.11;5.55;-2.61;2.94;-3.92;2.40
-9.80;5.55;-6.64;-1.85;0.98;-1.63
-0.98;7.95;7.84;-1.09;-0.65;2.40
0.65;0.65;-0.98;-4.25;10.56;-1.63
3.05;-7.41;-0.98;-1.09;5.01;-10.45
1.42;2.29;-0.98;-1.85;4.14;-8.93
3.05;1.52;-0.98;-1.09;5.77;-8.06
-1.74;1.52;-2.61;2.94;4.14;-4.03
0.65;-6.53;-0.98;2.18;-8.71;3.16
3.05;-5.77;-0.98;10.24;-8.71;0.76
1.42;-4.14;-0.22;0.54;-9.58;1.63
3.05;-0.11;3.05;0.54;5.01;8.06
-9.04;2.29;-5.01;5.34;6.53;-10.45
1.42;-8.17;-21.13;2.94;6.53;13.72
-4.14;-6.53;3.81;-26.90;5.01;2.40
-1.74;-6.53;5.44;-1.09;5.01;-23.41
3.05;-2.50;7.08;1.31;6.53;-0.00
-0.11;0.65;3.81;-1.09;15.46;-0.87
-4.14;-0.98;-0.22;-2.72;-26.46;-1.63
2.29;3.05;-0.22;-2.72;5.01;1.63
-0.11;5.55;-1.85;40.84;26.68;3.16
3.05;3.92;-5.01;-30.06;10.56;1.63
17.53;3.92;-4.25;0.54;5.77;0.76
4.68;3.05;-2.61;1.31;3.38;-0.87
3.05;0.65;-0.98;-19.60;-6.32;2.40
3.05;-7.41;-0.98;11.00;-6.32;-23.41
3.05;1.52;-0.98;7.84;-10.35;3.16
-0.98;28.10;1.42;3.81;-20.80;1.63
1.42;3.92;3.05;2.94;-12.74;-1.63
-5.01;2.29;1.42;-5.12;-3.05;2.40
3.05;2.29;-0.22;-9.91;5.01;2.40
-5.01;3.92;1.42;-12.31;5.01;2.40
3.05;5.55;3.81;-9.15;5.01;-1.63
-0.98;-7.41;7.84;-4.25;5.01;-8.06
-2.61;-1.74;3.81;-1.09;-2.29;-6.43
-6.64;-6.53;3.05;-2.72;-7.95;-8.06
-11.43;-5.77;-0.22;-12.31;-11.98;-6.43
-7.41;-2.50;-0.22;2.94;-5.55;1.63
-2.61;0.65;-0.98;10.24;-10.35;12.85
3.05;8.71;-0.98;6.21;-15.14;-6.43
7.08;6.32;3.81;2.94;-15.14;-0.00
2.29;7.08;-3.38;-1.09;-10.35;2.40
2.29;6.32;-5.01;-5.12;0.11;1.63
2.29;3.92;-5.01;-4.25;9.80;7.19
-3.38;-10.56;-3.38;-1.85;13.07;-2.40
3.05;8.71;-26.79;-2.72;15.46;2.40
1.42;6.32;4.68;6.21;18.62;0.76
1.42;-1.74;27.99;6.97;3.38;4.79
3.05;1.52;-1.85;4.57;5.01;17.75
1.42;-1.74;-21.13;8.60;5.01;-8.06
-1.74;-0.98;2.18;5.34;5.01;2.40
1.42;-5.01;-0.22;10.24;5.01;2.40
-10.67;17.53;-0.22;-18.84;7.41;2.40
-5.77;7.95;1.42;2.18;0.98;3.16
-1.74;-7.41;6.21;-3.48;-0.65;2.40
-4.14;-5.77;4.68;-4.25;-0.65;2.40
19.17;-0.98;4.68;-2.72;1.74;1.63
28.86;-3.38;-0.98;22.32;5.01;-6.43
-0.98;3.92;-0.98;-29.29;0.98;-4.90
4.68;6.32;-2.61;-4.25;-7.95;-2.40
3.05;5.55;-2.61;-1.85;0.98;0.76
2.29;-19.49;-3.38;-4.25;1.74;5.66
1.42;3.05;-5.01;2.94;4.14;8.06
3.05;6.32;-2.61;10.24;-2.29;0.76
-0.98;27.22;-3.38;11.87;-13.61;2.40
-1.74;-24.28;-5.01;1.31;0.98;11.22
3.05;1.52;-0.98;-1.85;-7.08;28.21
3.05;-4.14;-0.98;3.81;-8.71;7.19
3.05;-5.77;-0.98;-32.45;-7.08;1.63
-0.98;-5.01;1.42;-3.48;0.11;-7.30
-6.64;1.52;1.42;-0.22;5.01;-5.66
-0.98;-5.01;6.21;6.97;9.04;-0.87
-1.74;-7.41;1.42;2.18;5.77;8.06
3.05;-17.86;3.81;24.72;5.77;-6.43
-0.98;-5.01;7.08;-15.57;-13.61;-6.43
-5.77;-5.01;3.81;-1.09;5.01;-9.69
-5.01;-1.74;1.42;1.31;-3.92;-12.09
20.80;-3.38;-0.22;13.39;-2.29;-5.66
-0.11;-0.11;1.42;2.18;-5.55;-0.87
3.05;-19.49;-1.85;6.21;-7.95;30.60
3.05;6.32;-0.98;15.03;16.23;20.91
3.92;44.98;-5.88;-10.78;9.80;20.91
5.44;6.32;-2.61;3.81;5.01;13.72
3.05;6.32;-0.98;-4.25;5.01;7.19
2.29;-7.41;-0.98;-10.78;2.50;-24.18
3.05;-1.74;-2.61;-17.21;0.98;-10.45
3.05;-2.50;-0.22;-15.57;2.50;-35.50
0.65;-2.50;-0.98;-6.75;-16.01;-21.78
0.65;1.52;1.42;-0.22;-2.29;-8.06
-5.77;-8.17;1.42;-5.88;1.74;-3.27
-1.74;-0.98;1.42;0.54;-2.29;-6.43
-2.61;28.10;-0.22;11.87;12.20;4.03
-10.67;-27.55;3.81;16.66;31.58;8.06
-2.61;-17.10;2.18;2.94;0.11;7.19
-1.74;-2.50;13.50;2.18;1.74;2.40
-0.98;2.29;6.21;0.54;-3.05;0.76
-5.77;0.65;-3.38;2.18;-4.68;-0.87
2.29;-0.98;2.18;7.84;0.98;1.63
3.05;2.29;-0.98;1.31;-7.95;1.63
2.29;5.55;-5.01;-2.72;-15.14;-10.45
3.05;32.13;-8.28;-30.06;-8.71;2.40
5.44;6.32;21.56;2.18;-0.65;9.69
3.92;6.32;-0.98;2.18;5.01;-15.35
-7.41;14.37;-0.98;-2.72;-2.29;2.40
3.05;4.68;13.50;-6.75;-2.29;-4.90
-0.11;0.65;-5.88;2.18;-3.92;-12.09
-36.37;-21.89;-0.98;2.94;4.14;-7.30
-0.98;10.35;-0.98;6.21;1.74;0.76
33.65;6.32;1.42;1.31;6.53;-7.30
0.65;-0.98;-0.22;-1.09;3.38;-6.43
0.65;1.52;6.21;5.34;-2.29;2.40
16.77;0.65;4.68;8.60;4.14;7.19
1.42;-2.50;-1.85;-1.85;2.50;12.85
3.05;-0.98;23.20;2.18;-3.05;14.48
23.20;-3.38;6.21;2.18;0.11;10.45
-3.38;20.04;4.68;-1.85;-2.29;3.16
-5.01;-2.50;3.81;-2.72;5.01;2.40
-0.11;-0.98;-0.98;-1.09;5.01;-1.63
-0.98;-0.98;-0.98;-1.09;9.80;2.40
-5.01;4.68;-2.61;-0.22;10.56;17.75
3.05;3.92;-1.85;36.05;13.83;1.63
3.05;21.56;-9.91;9.37;-3.92;-3.27
3.05;6.32;-19.49;-2.72;-2.29;4.03
0.65;1.52;11.11;5.34;-6.32;14.48
2.29;2.29;-0.98;8.60;-6.32;-15.35
2.29;2.29;-0.98;11.00;-28.86;2.40
1.42;-1.74;0.65;10.24;6.53;-0.00
-2.61;-12.20;3.05;-1.09;-4.68;-2.40
-0.11;-4.14;0.65;-7.51;-2.29;-5.66
-2.61;7.08;-0.98;-10.78;-2.29;-12.96
1.42;-2.50;1.42;-9.15;4.14;-11.33
3.05;-0.98;1.42;-5.88;1.74;-2.40
2.29;-2.50;3.05;-5.88;2.50;4.03
2.29;-7.41;-2.61;-5.88;-3.92;2.40
-0.11;1.52;3.81;-1.85;5.01;8.06
-5.01;-3.38;3.81;2.94;5.01;39.42
-1.74;-1.74;3.05;6.97;9.04;11.22
-7.41;-4.14;4.68;9.37;17.86;6.43
-1.74;-0.98;-0.98;10.24;13.83;4.79
2.29;5.55;-0.98;6.97;5.01;17.75
-0.98;6.32;-0.98;2.18;1.74;4.03
2.29;6.32;-5.88;4.57;-20.80;-7.30
-2.61;2.29;-8.28;6.97;4.14;-5.66
0.65;5.55;-1.85;7.84;-0.65;-6.43
0.65;6.32;-0.98;3.81;26.68;-10.45
-0.98;3.92;-0.98;2.18;5.01;-10.45
3.05;-0.98;-0.98;-3.48;0.98;-10.45
2.29;2.29;-0.98;-4.25;-20.80;-13.72
3.05;-2.50;3.81;-5.88;-3.92;-33.87
5.44;2.29;0.65;-1.09;4.14;-4.90
-1.74;3.92;-0.22;-5.88;3.38;4.79
3.05;1.52;10.24;0.54;-3.05;-0.87
-23.52;-0.98;-0.98;-7.51;-6.32;16.12
3.05;-2.50;3.05;-1.85;-9.58;19.28
-1.74;-4.14;7.08;-2.72;-7.08;17.75
-2.61;-31.58;4.68;1.31;10.56;8.06
16.01;-5.01;3.05;10.24;13.83;-3.27
36.15;-5.01;-0.22;-3.48;15.46;-15.35
-4.14;-4.14;-0.98;-4.25;5.01;-10.45
-1.74;-1.74;-0.98;22.32;-2.29;-0.00
-4.14;3.92;-10.67;-9.15;-2.29;3.16
2.29;6.32;-3.38;-1.85;-10.35;2.40
3.05;6.32;-5.01;-25.26;-21.56;2.40
0.65;2.29;-0.98;-2.72;-24.83;2.40
-8.17;0.65;-0.98;-0.22;-26.46;2.40
-28.31;2.29;-1.85;6.97;-19.17;-0.00
0.65;2.29;-1.85;-0.22;-11.11;-6.43
1.42;-6.53;22.32;3.81;3.38;15.25
3.05;-0.98;-0.98;9.37;13.07;4.79
1.42;-0.98;1.42;17.42;25.92;8.06
4.68;6.32;1.42;6.97;5.77;4.03
-0.98;4.68;3.81;-1.85;26.68;4.03
-0.98;-0.98;1.42;-5.88;17.10;-4.03
-9.04;-2.50;6.21;-14.81;-3.92;-8.06
-7.41;-4.14;3.05;-14.81;0.98;-7.30
0.65;-2.50;7.84;-2.72;-7.95;-15.35
-4.14;-0.11;-0.22;-6.75;-13.61;-8.93
-1.74;1.52;-1.85;-5.88;-15.14;0.76
-0.98;4.68;-0.98;-2.72;-9.58;-13.72
2.29;7.08;-5.01;2.18;-15.14;4.03
-5.77;17.53;-3.38;6.97;-7.95;2.40
3.05;7.08;-23.52;6.21;0.98;4.03
2.29;3.05;-0.98;2.94;5.01;2.40
3.05;1.52;-2.61;1.31;15.46;1.63
2.29;6.32;-0.98;-1.85;7.41;-0.00
0.65;5.55;-9.04;-0.22;4.14;-3.27
-10.67;3.05;-0.22;2.18;5.01;-0.00
1.42;4.68;-0.22;2.18;17.10;4.79
3.05;-5.77;-0.98;8.60;18.62;5.66
3.05;-0.98;-0.22;-3.48;12.20;4.03
2.29;-1.74;-0.98;5.34;-7.08;-0.00
-7.41;-5.01;3.81;-1.85;2.50;-1.63
-13.07;1.52;3.81;-1.09;-20.80;2.40
-1.74;-4.14;3.81;0.54;-11.98;2.40
0.65;-6.53;8.71;3.81;-3.92;2.40
-4.14;-2.50;4.68;-1.85;-7.95;-2.40
-2.61;-2.50;0.65;-4.25;7.41;-4.90
-2.61;-2.50;1.42;-1.09;-3.05;-6.43
-2.61;7.08;-0.98;16.66;8.17;-1.63
-0.11;5.55;-0.98;3.81;7.41;-2.40
1.42;4.68;-3.38;-1.85;12.20;1.63
3.05;6.32;-5.01;-1.85;17.86;-7.30
3.92;-0.98;-2.61;-2.72;2.50;2.40
-9.04;27.22;-3.38;-3.48;-0.65;0.76
3.05;-4.14;3.05;-5.88;-9.58;-21.78
2.29;6.32;0.65;-2.72;-7.95;10.45
3.05;6.32;-6.64;-1.85;-11.98;4.03
3.92;-5.77;1.42;-5.12;-8.71;-10.45
-0.11;-1.74;3.05;1.31;-8.71;-1.63
-3.38;-5.77;4.68;-2.72;-6.32;8.06
2.29;-3.38;2.18;2.94;-12.74;-8.93
-5.01;-6.53;0.65;2.94;5.01;-4.90
-4.14;-5.01;3.81;3.81;1.74;-1.63
-5.01;-6.53;4.68;2.18;5.77;-14.48
-7.41;-21.13;3.05;-0.22;7.41;1.63
-7.41;-5.77;11.87;2.18;7.41;2.40
-3.38;-0.98;2.18;-1.85;-3.05;1.63
1.42;-0.11;-0.22;-0.22;4.14;0.76
-5.01;4.68;-0.98;2.94;5.77;-2.40
1.42;5.55;-0.98;-2.72;5.01;2.40
3.05;6.32;-3.38;-2.72;5.01;3.16
2.29;7.08;-8.28;-3.48;-6.32;-4.90
3.05;4.68;-11.43;-4.25;-7.08;-9.69
0.65;2.29;-8.28;-4.25;-5.55;8.82
2.29;3.92;-1.85;6.21;1.74;4.79
5.44;1.52;-0.98;10.24;-5.55;19.28
3.05;-0.98;7.84;0.54;1.74;-0.87
2.29;-3.38;3.05;26.35;-3.92;-10.45
-0.11;-1.74;-0.98;11.00;1.74;-5.66
0.65;2.29;27.22;-1.09;10.56;6.43
1.42;3.92;-0.22;-1.85;15.46;-2.40
2.29;-0.98;4.68;-1.09;13.83;4.03
2.29;2.29;4.68;-0.22;6.53;2.40
1.42;-0.98;6.21;-2.72;0.11;8.06
-0.98;-7.41;4.68;-0.22;9.80;12.85
-0.98;0.65;4.68;-1.85;0.98;5.66
-8.17;-6.53;15.14;0.54;-3.92;1.63
-9.04;-6.53;0.65;8.60;-10.35;-6.43
-4.14;3.92;11.87;2.18;-16.01;-30.60
-0.98;-6.53;-1.85;-3.48;-12.74;-4.03
0.65;6.32;-1.85;-0.22;-33.65;-1.63
3.05;1.52;-8.28;1.31;-5.55;12.85
3.05;4.68;-3.38;-0.22;16.23;0.76
-0.11;1.52;-0.98;2.18;6.53;1.63
3.05;-0.98;-0.22;2.18;17.10;27.33
2.29;-0.11;-0.22;0.54;13.07;7.19
1.42;-5.77;-0.98;-1.85;0.98;2.40
13.50;-4.14;3.05;6.21;-2.29;-0.00
1.42;1.52;-23.52;-1.85;5.01;2.40
3.05;-3.38;8.71;6.21;1.74;-8.93
3.05;-6.53;1.42;7.84;-2.29;-22.54
2.29;-0.98;0.65;2.94;-7.08;6.43
0.65;-1.74;3.05;-2.72;-7.08;2.40
0.65;2.29;7.08;5.34;-7.95;-0.87
0.65;-4.14;3.81;-0.22;-8.71;-7.30
-5.77;-1.74;3.05;-1.09;4.14;-2.40
1.42;-0.98;7.08;-1.85;-3.05;0.76
3.92;-1.74;3.05;-1.85;4.14;-17.75
0.65;6.32;1.42;-1.85;3.38;3.16
4.68;7.95;-2.61;11.00;13.07;-8.93
3.05;6.32;-0.98;15.03;15.46;-5.66
1.42;2.29;-5.01;7.84;16.23;-4.90
-1.74;4.68;-0.98;-1.09;-0.65;-4.90
0.65;-0.98;-11.43;-5.88;-20.80;-1.63
-20.26;-0.98;-0.98;-14.81;-18.40;2.40
3.05;3.05;-1.85;-14.81;-16.01;4.03
2.29;3.05;-0.22;-13.18;-10.35;2.40
-0.98;-4.14;3.05;-4.25;-5.55;2.40
1.42;-5.01;7.08;-1.85;0.98;1.63
0.65;1.52;-22.76;-2.72;6.53;3.16
3.05;-5.01;0.65;-0.22;7.41;24.94
3.05;-2.50;-0.22;9.37;6.53;-8.06
-2.61;-7.41;3.05;5.34;5.01;-3.27
-0.98;-2.50;3.81;-0.22;-13.61;-2.40
16.77;-5.77;4.68;-1.09;6.53;-1.63
-2.61;-0.98;0.65;-1.09;4.14;-8.06
-1.74;-4.14;5.44;2.18;-3.92;-4.90
-2.61;6.32;3.05;-3.48;-10.35;-4.90
-4.14;2.29;-7.41;-4.25;-13.61;13.72
1.42;14.37;-0.98;-9.15;-12.74;0.76
-2.61;6.32;-5.01;-3.48;-13.61;4.03
10.35;5.55;-9.04;-0.22;-32.89;2.40
3.05;6.32;-8.28;-1.09;-16.01;-5.66
-0.98;26.46;-3.38;-1.09;-8.71;4.79
2.29;3.05;-0.98;0.54;32.34;9.69
-0.11;11.11;-3.38;-1.85;30.71;15.25
3.92;-2.50;-0.98;5.34;21.13;12.09
-3.38;1.52;-9.91;-1.09;13.83;3.16
-1.74;-0.98;-0.98;2.18;12.20;-1.63
1.42;-5.01;1.42;10.24;7.41;16.12
-0.98;5.55;3.81;3.81;6.53;-2.40
-0.98;1.52;6.21;6.97;9.80;-8.93
-1.74;2.29;6.21;6.97;-5.55;-8.93
-4.14;-5.77;-0.98;2.18;-6.32;-10.45
-13.83;-6.53;6.21;6.97;-3.92;-3.27
-2.61;-6.53;1.42;-1.85;-6.32;-23.41
-0.98;-0.98;-0.22;0.54;2.50;13.72
-0.11;5.55;-1.85;-1.85;6.53;20.91
3.92;4.68;-0.98;3.81;5.01;20.15
-23.52;5.55;-1.85;-12.31;4.14;17.75
3.92;3.05;-6.64;-4.25;4.14;-2.40
1.42;4.68;-4.25;11.00;5.77;0.76
3.05;3.92;-0.98;2.94;1.74;24.94
3.05;0.65;-3.38;-4.25;-13.61;-14.48
-2.61;-2.50;-0.98;-5.88;-12.74;-17.75
1.42;4.68;-0.98;11.00;5.01;-15.35
2.29;-4.14;-0.98;2.94;-7.08;-21.02
-1.74;1.52;-0.22;-28.42;-35.28;-19.38
-0.98;3.92;-0.98;-1.85;-6.32;-12.09
0.65;-6.53;3.81;-25.26;-25.59;2.40
3.05;-0.98;1.42;-0.22;10.56;3.16
-5.77;-0.98;2.18;4.57;5.01;4.79
-7.41;-1.74;3.05;9.37;9.80;11.22
-0.11;-2.50;3.05;1.31;15.46;8.06
-2.61;-3.38;6.21;2.94;10.56;4.79
-12.20;5.55;3.05;1.31;5.01;2.40
-6.64;-5.01;-0.98;-0.22;5.01;2.40
-2.61;1.52;-0.22;8.60;-4.68;0.76
0.65;3.05;-0.22;-28.42;-7.08;0.76
-2.61;3.92;-0.22;0.54;-18.40;1.63
-1.74;6.32;-1.85;6.97;-18.40;8.06
-0.98;2.29;-2.61;5.34;-11.98;4.03
-22.76;6.32;-2.61;2.94;-10.35;3.16
3.05;6.32;-0.98;-1.85;-21.56;2.40
3.05;16.01;-0.98;-4.25;-1.52;-3.27
0.65;0.65;-0.98;-14.81;5.01;1.63
-0.98;-0.98;-24.39;-10.78;9.04;-2.40
1.42;3.92;-0.98;-4.25;15.46;-4.03
3.92;1.52;11.11;-2.72;17.10;27.33
3.05;5.55;1.42;3.81;8.17;-6.43
3.92;-1.74;1.42;5.34;7.41;-1.63
3.92;2.29;0.65;11.87;6.53;4.79
-4.14;-29.95;2.18;-18.84;5.01;10.45
-4.14;0.65;2.18;11.00;4.14;4.79
-0.98;11.11;6.21;3.81;-7.08;4.03
-0.98;-2.50;0.65;2.18;-3.92;4.03
-4.14;-11.43;0.65;19.06;-18.40;0.76
2.29;0.65;1.42;6.97;-2.29;-1.63
3.05;3.05;-0.98;-1.09;-7.95;-8.06
2.29;3.92;-5.01;-2.72;-11.98;-16.99
1.42;3.92;-2.61;-1.85;-15.14;-9.69
3.05;7.08;-5.01;-4.25;-7.95;-9.69
-13.07;-10.56;-0.98;-0.22;-3.92;4.03
-1.74;-5.77;-0.98;-1.85;-8.71;2.40
3.05;5.55;-0.98;2.18;-6.32;3.16
3.05;-2.50;-0.98;2.94;0.98;36.26
2.29;-2.50;6.21;7.84;4.14;2.40
1.42;1.52;11.11;2.18;6.53;8.06
-1.74;-13.83;-0.98;2.94;13.07;2.40
-0.11;-5.01;-0.22;3.81;17.86;7.19
-0.11;1.52;-0.98;-1.09;5.01;3.16
-3.38;-3.38;0.65;-5.12;-2.29;3.16
1.42;-7.41;21.56;-2.72;4.14;2.40
3.05;-6.53;3.81;-2.72;0.98;-16.12
-0.98;-5.01;4.68;-15.57;-0.65;-4.90
-1.74;-4.14;6.21;-2.72;-16.01;1.63
-8.17;-13.83;6.21;0.54;0.98;2.40
-7.41;3.05;3.81;12.63;5.01;2.40
1.42;5.55;1.42;19.93;0.98;3.16
3.05;8.71;-0.98;11.00;-6.32;10.45
3.92;5.55;-0.98;2.94;-7.08;3.16
3.05;6.32;-1.85;-5.12;-2.29;28.97
4.68;32.13;-5.01;-10.78;5.01;8.82
1.42;2.29;-1.85;-14.81;10.56;4.03
-0.98;4.68;-0.98;-12.31;11.43;2.40
3.05;-5.01;-11.43;-4.25;17.10;-22.54
-0.98;6.32;-0.98;-1.85;19.49;-0.00
3.05;-2.50;12.74;-0.22;9.80;0.76
-7.41;-0.98;-0.98;5.34;5.01;-1.63
-1.74;-5.77;-0.98;8.60;-11.98;1.63
-5.01;0.65;3.81;1.31;-20.80;-9.69
-0.11;15.14;-0.98;-11.54;-20.80;0.76
3.05;1.52;7.84;0.54;-12.74;2.40
3.05;-8.17;7.08;-1.85;-11.98;13.72
1.42;-5.77;14.27;-5.88;-25.59;-12.96
-4.14;-5.01;-0.98;-4.25;-10.35;-8.93
-7.41;18.40;3.81;-3.48;0.11;-8.06
-4.14;-0.11;-0.22;-3.48;-16.01;-11.33
1.42;-0.98;-0.98;-14.81;5.01;-15.35
-22.76;2.29;-0.98;-1.85;2.50;-8.06
7.95;5.55;0.65;-4.25;13.07;-1.63
-0.98;3.05;-3.38;-1.09;-3.05;2.40
3.05;6.32;-5.01;-4.25;0.98;6.43
2.29;2.29;-2.61;-7.51;-3.05;11.22
-25.16;11.98;-3.38;2.94;5.01;9.69
3.92;5.55;1.42;-5.88;5.01;-2.40
3.05;3.92;-0.98;0.54;4.14;7.19
1.42;1.52;-0.22;-2.72;-2.29;-1.63
3.05;1.52;-0.22;2.94;5.01;-6.43
3.05;2.29;-0.98;6.21;4.14;-11.33
-4.14;1.52;2.18;6.21;5.01;-0.87
-5.77;-3.38;6.21;5.34;6.53;0.76
-2.61;-2.50;1.42;5.34;0.11;-3.27
3.05;-4.14;4.68;0.54;7.41;4.03
-2.61;-5.01;3.05;6.21;17.10;4.03
-0.98;-5.77;2.18;6.21;13.83;3.16
-5.77;6.32;7.84;6.97;5.01;10.45
-2.61;3.92;6.21;5.34;5.01;4.03
3.92;32.89;4.68;2.94;-7.08;8.06
1.42;1.52;-3.38;-0.22;-12.74;8.06
-0.98;2.29;-3.38;3.81;2.50;11.22
2.29;6.32;-5.01;0.54;4.14;1.63
-9.04;6.32;-5.88;0.54;-9.58;2.40
-12.20;6.32;-5.88;-0.22;-5.55;2.40
3.05;0.65;-17.86;-3.48;-6.32;-4.90
3.05;1.52;-0.98;-0.22;-8.71;-5.66
2.29;5.55;1.42;-2.72;-8.71;-1.63
14.37;3.92;1.42;-1.09;4.14;-10.45
-13.07;-11.43;-0.22;-0.22;-6.32;2.40
3.05;-2.50;-2.61;6.21;0.11;-1.63
-9.80;-0.98;1.42;7.84;2.50;-0.00
-1.74;-5.77;-0.98;10.24;0.98;-0.87
-3.38;-4.14;3.05;6.21;4.14;38.66
-1.74;2.29;-13.94;-4.25;4.14;2.40
-4.14;-3.38;7.84;-9.15;4.14;2.40
-1.74;-0.98;16.77;-6.75;0.11;-5.66
-5.01;-1.74;0.65;-1.85;-2.29;2.40
-4.14;3.92;3.81;-2.72;-0.65;-23.41
-2.61;-14.59;3.05;2.94;-3.92;-4.03
0.65;8.71;-1.85;-0.22;-2.29;-9.69
3.05;3.05;-1.85;6.97;-3.92;-5.66
3.05;3.92;-1.85;6.21;4.14;-6.43
-0.98;-18.62;-5.01;11.00;3.38;-4.90
1.42;1.52;-3.38;10.24;4.14;-2.40
-4.14;3.92;-1.85;-1.09;5.01;-7.30
1.42;-17.10;-2.61;-0.22;-0.65;-1.63
-0.98;-0.98;1.42;-1.09;0.98;0.76
3.05;-21.13;3.05;-2.72;-4.68;4.79
-0.98;2.29;-0.98;-0.22;-6.32;7.19
-0.11;-27.55;2.18;22.32;-7.08;13.72
1.42;3.92;-0.22;2.18;1.74;20.91
0.65;2.29;1.42;-1.85;5.01;16.12
-0.11;0.65;3.81;3.81;4.14;4.79
3.05;-4.14;7.08;-1.85;-7.08;3.16
1.42;-0.98;4.68;-5.88;-0.65;11.22
2.29;-21.13;3.05;12.63;5.01;3.16
-0.98;-5.01;3.05;-1.85;5.01;-2.40
2.29;-4.14;-2.61;2.18;10.56;-12.96
-0.98;1.52;-0.22;0.54;10.56;-4.90
2.29;0.65;-2.61;-1.09;9.04;1.63
3.05;6.32;-2.61;6.21;8.17;-0.87
3.05;3.92;-5.01;2.94;9.04;-5.66
1.42;5.55;20.80;1.31;5.01;1.63
3.05;10.35;-0.98;-1.09;0.98;2.40
-0.11;3.05;-0.98;-30.82;-11.98;-2.40
3.05;-3.38;1.42;-2.72;-6.32;-1.63
1.42;-1.74;-0.98;-1.09;2.50;-1.63
3.05;17.53;-0.22;11.00;5.01;3.16
3.05;2.29;0.65;16.66;5.01;-1.63
-2.61;-5.77;-0.98;12.63;5.01;0.76
-0.98;-1.74;0.65;2.18;-0.65;2.40
0.65;-0.98;-21.13;-13.18;-15.14;1.63
-28.31;-1.74;-0.22;11.00;-7.08;-1.63
-1.74;-3.38;3.81;-13.94;2.50;4.79
-5.77;7.08;1.42;-37.35;-10.35;2.40
-9.04;-4.14;1.42;-10.78;-16.77;13.72
-9.80;-5.77;3.05;-1.09;-7.95;-10.45
-0.98;1.52;-0.98;-1.09;0.98;2.40
1.42;4.68;-0.98;-0.22;-3.92;16.12
-0.98;-0.11;-2.61;6.97;-3.05;1.63
3.05;5.55;-6.64;5.34;0.11;2.40
3.92;1.52;-4.25;-0.22;5.01;2.40
3.05;23.20;-5.01;-1.85;5.77;4.03
1.42;4.68;-1.85;-0.22;2.50;2.40
2.29;1.52;1.42;-26.90;17.10;2.40
17.53;1.52;-0.98;25.48;20.26;1.63
3.05;2.29;-3.38;2.18;5.01;7.19
0.65;6.32;-0.98;9.37;4.14;0.76
18.40;3.92;0.65;5.34;-7.95;-6.43
1.42;-1.74;0.65;-1.09;-8.71;-6.43
0.65;30.49;0.65;2.18;0.11;-1.63
-0.98;-19.49;3.05;5.34;-7.95;2.40
-0.98;4.68;0.65;6.21;-7.08;-2.40
-1.74;-4.14;7.84;3.81;-3.92;-2.40
-0.98;-3.38;6.21;10.24;-2.29;2.40
1.42;14.37;7.84;1.31;1.74;5.66
-0.98;-5.01;2.18;-1.85;5.01;8.06
26.46;-21.89;-0.22;-1.85;10.56;2.40
1.42;-0.98;0.65;-0.22;6.53;2.40
39.31;1.52;-2.61;-3.48;5.01;2.40
3.05;0.65;-1.85;-14.81;5.77;2.40
3.05;5.55;-9.04;-1.85;4.14;0.76
-6.64;6.32;-9.04;-1.09;-5.55;-4.90
3.05;4.68;-8.28;-9.15;5.01;-3.27
-0.11;1.52;-3.38;3.81;1.74;4.03
-0.98;-1.74;-1.85;0.54;5.01;-2.40
-4.14;2.29;-0.98;-14.81;14.59;4.03
0.65;2.29;-0.22;3.81;16.23;2.40
-9.04;-2.50;3.05;15.90;10.56;3.16
2.29;-5.01;7.08;2.94;5.77;17.75
0.65;-1.74;30.38;-0.22;0.98;2.40
2.29;-2.50;3.05;2.18;0.98;-8.93
-9.04;-21.89;7.08;-19.60;-10.35;-6.43
-0.11;-5.01;1.42;-1.09;-12.74;-6.43
-0.11;13.50;9.47;9.37;-7.95;2.40
3.05;-2.50;3.05;5.34;-5.55;2.40
2.29;-2.50;7.08;6.21;3.38;4.79
-0.98;-2.50;1.42;-1.85;5.77;6.43
1.42;4.68;1.42;14.27;8.17;6.43
3.92;3.92;-0.98;-1.09;16.23;3.16
2.29;6.32;-3.38;-1.09;10.56;-2.40
-4.14;7.95;-2.61;-3.48;0.98;2.40
0.65;6.32;-5.01;-3.48;0.11;-4.90
3.05;7.95;-8.28;-5.88;-4.68;-0.87
0.65;-2.50;-0.98;-2.72;-5.55;-8.06
-5.77;-2.50;-0.98;2.94;-5.55;0.76
3.05;-4.14;-1.85;-0.22;17.86;-0.00
2.29;2.29;-1.85;1.31;-8.71;1.63
8.71;-4.14;-0.22;-1.85;-6.32;-25.05
2.29;-0.98;-9.91;-6.75;-7.08;-5.66
3.05;3.05;1.42;-5.88;-7.95;-12.09
3.05;-0.98;-0.98;-9.91;-5.55;-0.87
-1.74;2.29;-0.98;-2.72;-6.32;-8.93
-5.01;24.07;7.84;15.90;-2.29;4.79
0.65;-5.01;7.84;8.60;9.04;12.85
23.20;-3.38;4.68;24.72;-6.32;2.40
-0.98;8.71;0.65;-5.88;-6.32;2.40
-1.74;-2.50;1.42;6.97;5.01;22.54
-0.98;4.68;-0.98;9.37;5.77;2.40
-0.11;6.32;0.65;3.81;19.49;1.63
3.05;4.68;-0.98;-1.09;2.50;2.40
-1.74;7.08;-1.85;31.15;-4.68;-4.90
1.42;4.68;-1.85;-5.88;3.38;-2.40
-8.17;6.32;-0.98;-3.48;5.01;-2.40
-0.98;3.92;-0.98;-1.85;4.14;2.40
3.05;7.08;-7.41;-2.72;2.50;0.76
-26.68;-0.98;-0.98;-1.85;0.11;-3.27
2.29;-5.01;-0.98;-1.85;2.50;-2.40
1.42;-0.98;-0.98;8.60;10.56;3.16
3.05;-0.98;-1.85;2.94;5.77;2.40
3.05;-4.14;-0.98;-0.22;5.01;7.19
3.05;-0.98;1.42;5.34;5.77;3.16
-1.74;-4.14;9.47;6.97;5.77;-0.00
-4.14;27.22;7.08;3.81;5.01;-6.43
0.65;15.14;3.81;-1.09;5.77;-2.40
-0.98;-2.50;7.08;-0.22;16.23;-8.06
-0.11;-2.50;4.68;11.00;8.17;-14.48
-9.04;3.05;2.18;-29.29;6.53;-6.43
-5.77;3.92;7.08;0.54;6.53;-24.18
-4.14;3.92;3.81;-3.48;5.01;-8.93
-7.41;3.92;-1.85;-1.09;7.41;23.30
25.59;6.32;-0.98;-9.91;10.56;23.30
0.65;1.52;-6.64;-1.85;-1.52;14.48
0.65;0.65;-3.38;2.18;-12.74;7.19
30.49;-5.77;-0.98;13.39;-15.14;11.22
3.05;3.92;-0.98;11.00;-16.77;-8.93
4.68;3.92;-0.98;-4.25;-11.98;6.43
3.05;2.29;-0.98;-10.78;-22.43;-5.66
-5.77;-26.68;-0.98;-16.33;-18.40;-8.93
-5.77;-2.50;-2.61;-16.33;0.11;-9.69
-4.14;1.52;-2.61;-14.81;13.07;-31.47
-9.80;-5.01;4.68;-10.78;16.23;-5.66
-4.14;-5.01;2.18;-5.88;5.01;-7.30
-6.64;-5.77;2.18;2.18;0.11;-1.63
0.65;-5.77;-5.01;3.81;3.38;2.40
-0.98;-4.14;3.05;10.24;-6.32;6.43
0.65;-5.01;-0.22;-9.91;-19.17;2.40
-0.98;-3.38;16.77;0.54;-16.01;-2.40
1.42;3.05;14.27;2.94;-12.74;1.63
-35.61;-17.86;-0.98;-1.85;-2.29;0.76
3.05;5.55;-3.38;-3.48;-3.05;10.45
3.05;6.32;-0.98;-28.42;5.01;9.69
3.05;11.11;-3.38;2.18;14.59;10.45
3.05;10.35;-3.38;-3.48;17.86;4.79
0.65;3.05;-0.98;-12.31;18.62;0.76
3.05;-5.01;-0.98;0.54;13.83;-0.00
1.42;-2.50;-0.22;3.81;9.04;-3.27
29.62;-3.38;2.18;0.54;-4.68;-10.45
2.29;-4.14;0.65;2.94;-2.29;-9.69
-1.74;0.65;-0.22;-10.78;-10.35;-8.93
-22.76;-21.89;3.05;-1.85;4.14;-1.63
-4.14;-2.50;1.42;3.81;7.41;2.40
-5.77;-5.01;2.18;-0.22;3.38;-2.40
-0.98;-4.14;9.47;0.54;0.11;-3.27
-4.14;-23.52;7.84;-17.21;-3.92;-4.90
-4.14;5.55;7.08;27.99;-10.35;-0.00
1.42;-6.53;23.96;-0.22;-3.92;6.43
-0.98;-0.98;1.42;-5.88;-3.92;4.79
-0.98;-17.10;1.42;-0.22;-3.92;8.06
3.05;1.52;-0.22;2.18;-2.29;13.72
1.42;3.92;-0.98;-1.09;-3.92;2.40
3.05;7.95;-0.98;-9.15;-7.95;8.06
2.29;6.32;-2.61;-2.72;0.98;11.22
3.05;2.29;-1.85;-1.85;9.04;-0.00
3.05;1.52;-6.64;2.18;17.86;3.16
1.42;0.65;-0.98;0.54;5.77;-29.08
3.05;7.08;-0.98;2.18;5.77;-11.33
-7.41;3.92;-0.22;2.18;5.01;-14.48
-5.77;-0.98;1.42;2.94;5.77;-8.06
-7.41;3.05;-0.98;2.18;5.01;-8.06
-0.98;-4.14;1.42;10.24;5.01;-0.00
-0.11;-0.98;1.42;2.94;2.50;-1.63
0.65;-5.77;0.65;-0.22;-3.05;-4.90
-1.74;-5.01;7.08;2.18;-3.05;2.40
-0.11;-2.50;5.44;-1.85;-6.32;2.40
-1.74;-4.14;1.42;-6.75;-15.14;4.79
-1.74;-0.98;0.65;-5.88;-21.56;2.40
2.29;5.55;-0.98;-2.72;-16.77;1.63
2.29;3.05;-0.98;-9.15;-17.53;2.40
3.05;4.68;-0.98;-7.51;-16.77;2.40
-0.98;-4.14;-3.38;-1.85;-8.71;-2.40
3.05;2.29;-10.67;-1.09;0.11;-8.06
0.65;7.08;-5.01;-1.85;5.01;-25.05
2.29;3.92;-5.01;0.54;7.41;-6.43
-0.98;5.55;-0.22;11.00;25.16;2.40
3.05;4.68;-0.98;-0.22;12.20;0.76
1.42;5.55;-0.22;-1.85;9.80;3.16
-0.98;6.32;2.18;-0.22;5.01;2.40
-0.11;3.92;3.05;-3.48;0.98;-0.00
0.65;0.65;-0.22;-1.85;4.14;2.40
-0.98;-1.74;-0.22;-1.85;0.11;-1.63
-4.14;-1.74;-0.22;8.60;4.14;-2.40
0.65;-5.01;6.21;11.00;1.74;-4.90
-7.41;-1.74;4.68;12.63;-3.92;0.76
0.65;-1.74;7.08;11.00;13.07;6.43
3.05;-1.74;8.71;6.21;9.80;11.22
-8.17;13.50;3.81;-4.25;4.14;3.16
-0.98;3.92;0.65;-3.48;0.98;15.25
-4.14;5.55;0.65;-7.51;9.04;6.43
0.65;3.92;-1.85;-3.48;-10.35;-5.66
-2.61;6.32;-5.01;19.06;0.98;-5.66
-0.11;6.32;-2.61;2.18;0.98;-0.00
3.05;5.55;-0.98;1.31;6.53;2.40
3.05;6.32;-0.98;8.60;12.20;2.40
3.05;5.55;-3.38;6.21;5.01;-27.44
3.05;-0.98;-5.01;-1.85;3.38;0.76
0.65;-2.50;-3.38;0.54;5.77;3.16
3.05;0.65;-0.98;1.31;-3.92;2.40
2.29;-0.98;-1.85;-4.25;-19.17;6.43
3.05;-1.74;-0.98;11.00;-15.14;9.69
4.68;-5.01;0.65;0.54;-12.74;2.40
0.65;4.68;2.18;-1.09;-12.74;1.63
-2.61;-0.98;1.42;-3.48;-32.13;-4.90
1.42;-5.01;3.81;0.54;-2.29;-8.06
-10.67;-5.77;21.56;2.94;2.50;-11.33
-4.14;0.65;7.08;2.94;5.01;-10.45
-9.80;-2.50;7.08;6.97;8.17;-14.48
-8.17;2.29;-0.98;0.54;4.14;-19.38
-25.92;3.92;-2.61;-1.09;5.01;1.63
1.42;6.32;-1.85;-0.22;5.01;-0.87
3.05;-0.98;-17.86;10.24;0.11;4.79
3.05;13.50;-8.28;2.94;3.38;10.45
29.62;3.92;-4.25;2.94;18.62;9.69
3.05;6.32;11.87;-9.15;0.11;10.45
1.42;-0.98;-2.61;-5.88;3.38;12.85
2.29;0.65;-0.98;-11.54;3.38;13.72
-0.98;1.52;-15.46;-14.81;5.01;13.72
2.29;-1.74;-0.98;-9.91;7.41;2.40
3.05;2.29;-0.22;-6.75;-0.65;-21.78
-1.74;2.29;0.65;-2.72;-6.32;-14.48
-4.14;5.55;-0.98;-2.72;-7.08;-21.78
0.65;-3.38;3.05;2.18;-5.55;-19.38
-7.41;-5.01;-15.46;10.24;-9.58;-11.33
-1.74;-0.98;4.68;9.37;-2.29;-7.30
-6.64;-6.53;-0.98;2.18;4.14;-0.00
-5.01;-5.77;-5.01;-1.85;4.14;-4.90
3.05;-1.74;1.42;-2.72;5.01;8.06
3.05;2.29;-0.98;-4.25;4.14;14.48
5.44;3.92;-0.98;-2.72;0.98;6.43
3.05;5.55;-9.91;-1.09;2.50;0.76
-4.14;7.95;-3.38;-3.48;3.38;-3.27
-5.01;3.92;-25.16;2.94;5.77;-19.38
0.65;3.92;-3.38;0.54;6.53;8.06
-2.61;6.32;-0.98;0.54;16.23;3.16
-0.98;3.92;-5.01;3.81;-2.29;1.63
-2.61;2.29;-0.98;21.45;-7.08;-3.27
3.05;1.52;1.42;2.18;-12.74;-0.00
22.43;-4.14;0.65;5.34;-8.71;-5.66
-1.74;-30.71;1.42;1.31;0.11;-1.63
-8.17;-2.50;4.68;2.18;5.01;-6.43
-1.74;2.29;7.08;2.18;0.98;-8.93
-1.74;3.92;-0.22;-2.72;-0.65;-8.93
-2.61;-5.01;3.81;0.54;-2.29;20.91
3.05;-4.14;11.87;-5.88;5.01;-0.00
-33.98;-2.50;4.68;2.18;7.41;7.19
2.29;-0.98;7.08;-2.72;-4.68;6.43
2.29;8.71;3.05;-1.85;-3.92;2.40
0.65;-4.14;-0.98;0.54;-8.71;6.43
-1.74;-0.98;-0.98;5.34;5.77;6.43
-7.41;-0.98;-0.98;0.54;6.53;2.40
3.05;-8.17;-1.85;10.24;5.01;2.40
3.05;-20.26;-0.98;6.21;5.01;-2.40
-8.17;5.55;-1.85;0.54;4.14;-6.43
-0.11;11.11;-0.22;2.18;0.98;-0.00
0.65;3.92;-0.98;-1.09;0.98;-1.63
-0.98;-0.98;-0.98;0.54;3.38;-9.69
0.65;5.55;1.42;18.30;4.14;-8.06
-1.74;0.65;-0.98;-2.72;5.01;-8.93
-1.74;4.68;-0.98;-1.09;5.01;1.63
-0.98;-4.14;6.21;1.31;5.01;3.16
0.65;-13.83;-0.22;-1.85;0.11;9.69
-15.46;-0.98;0.65;-0.22;-0.65;14.48
2.29;-2.50;4.68;0.54;-3.92;11.22
3.05;-5.01;14.27;-1.09;0.11;24.18
2.29;-3.38;4.68;4.57;-2.29;9.69
3.92;-2.50;3.05;3.81;4.14;3.16
3.05;1.52;-0.22;-1.09;18.62;-10.45
-9.04;-0.98;-0.22;2.18;-6.32;-10.45
1.42;6.32;-0.22;-1.85;-2.29;-12.09
-0.98;1.52;-0.98;-1.09;5.01;-8.06
3.05;-17.10;-5.01;-1.09;0.11;-1.63
-0.98;6.32;-8.28;1.31;-3.05;20.15
2.29;-5.01;-8.28;-0.22;0.11;1.63
-1.74;4.68;-4.25;-1.85;7.41;0.76
-9.04;-8.17;-2.61;10.24;7.41;-2.40
24.07;-5.77;-0.98;3.81;5.01;2.40
0.65;6.32;-0.98;-1.85;3.38;2.40
-0.11;-26.68;-0.22;-1.85;3.38;-0.00
2.29;1.52;2.18;3.81;5.01;22.54
5.44;0.65;3.05;0.54;16.23;8.06
3.05;-2.50;-0.22;-2.72;7.41;-2.40
8.71;1.52;4.68;1.31;5.77;-0.00
-1.74;-6.53;7.08;2.18;5.01;-0.00
-4.14;-6.53;-0.22;1.31;2.50;2.40
-2.61;-0.98;4.68;2.18;-8.71;1.63
-4.14;-5.77;7.08;2.18;-12.74;7.19
-1.74;-1.74;19.93;3.81;-16.01;2.40
-7.41;-5.77;-0.98;-1.09;-28.10;-5.66
-2.61;-1.74;-0.98;11.00;-24.83;-1.63
-3.38;4.68;0.65;-0.22;-7.08;-0.00
3.05;4.68;-2.61;-0.22;4.14;-1.63
0.65;8.71;-5.01;10.24;9.80;0.76
3.05;7.95;-2.61;11.00;14.59;1.63
3.92;6.32;-0.98;11.00;15.46;9.69
4.68;2.29;-0.98;2.94;25.16;8.06
4.68;11.98;0.65;-1.85;5.01;3.16
7.95;0.65;17.53;-5.88;2.50;19.28
-5.77;1.52;-0.98;-9.15;-5.55;12.85
5.44;2.29;-2.61;-14.81;0.98;2.40
-0.98;-5.77;-0.98;-9.91;-15.14;-1.63
0.65;-0.98;-0.22;-10.78;-3.92;-1.63
-29.95;2.29;3.05;-4.25;-15.14;-1.63
-4.14;1.52;1.42;-2.72;7.41;-14.48
-0.98;-6.53;7.08;2.18;-2.29;-17.75
-2.61;17.53;7.84;0.54;9.04;-5.66
-0.98;-4.14;7.08;0.54;5.01;-4.90
-0.98;-0.98;1.42;3.81;5.01;4.03
-2.61;1.52;1.42;6.21;0.11;-0.00
-12.20;4.68;3.81;-2.72;-4.68;-0.00
0.65;5.55;-2.61;2.18;-3.05;2.40
2.29;6.32;-9.04;3.81;-8.71;-14.48
3.05;6.32;-8.28;2.18;-10.35;-6.43
-7.41;-6.53;-5.01;6.21;-6.32;-8.93
-4.14;5.55;-0.98;13.39;-4.68;2.40
3.05;2.29;0.65;11.87;-6.32;2.40
0.65;3.05;-2.61;5.34;-5.55;25.81
3.05;0.65;1.42;-4.25;1.74;2.40
0.65;-0.98;-0.22;-13.18;0.98;3.16
3.05;-2.50;3.81;-14.81;3.38;26.57
3.05;1.52;15.90;-12.31;7.41;-0.87
3.05;2.29;4.68;-5.88;5.01;5.66
-7.41;-19.49;-0.98;-1.85;3.38;7.19
3.92;-23.52;2.18;24.72;5.01;4.03
-0.98;-3.38;0.65;2.18;4.14;0.76
0.65;-4.14;9.47;7.84;12.20;3.16
-5.01;-6.53;6.21;2.18;21.89;0.76
1.42;-4.14;4.68;2.18;21.89;-3.27
-5.01;-0.98;-0.22;-1.85;15.46;-0.00
3.05;-2.50;-0.98;-3.48;-5.55;-1.63
-0.98;2.29;-0.98;-1.85;-11.11;-6.43
3.05;7.08;-0.98;-5.88;-10.35;6.43
-29.95;6.32;-6.64;-2.72;-20.04;-9.69
0.65;7.08;-1.85;-1.85;-25.59;-4.90
1.42;4.68;-0.98;-0.22;-26.46;2.40
2.29;5.55;0.65;-1.85;-20.80;2.40
1.42;3.92;-0.98;1.31;-12.74;6.43
-0.98;0.65;3.05;5.34;-3.92;4.79
0.65;-21.13;8.71;-1.09;-5.55;-5.66
1.42;-26.68;-0.22;0.54;5.01;-3.27
-0.98;-4.14;-0.98;19.06;12.20;0.76
2.29;-4.14;3.05;-1.09;17.10;4.03
-2.61;22.43;1.42;23.09;7.41;2.40
-1.74;-3.38;3.05;2.94;4.14;-9.69
-0.98;-6.53;2.18;2.18;3.38;2.40
-6.64;6.32;1.42;-0.22;5.01;6.43
2.29;-2.50;3.05;-1.85;7.41;-15.35
-4.14;-4.14;1.42;-4.25;5.77;-6.43
-1.74;-19.49;3.05;-0.22;6.53;-5.66
-0.98;30.49;-0.98;-3.48;5.01;-4.90
3.05;-6.53;-0.98;2.18;-0.65;-10.45
-0.11;3.05;-29.95;-1.85;4.14;2.40
1.42;-5.01;-5.88;-1.85;5.01;4.79
2.29;6.32;-4.25;3.81;2.50;16.12
3.05;7.08;-0.22;0.54;9.04;19.28
-17.10;2.29;-0.98;-12.31;6.53;12.09
3.05;4.68;-0.22;-2.72;5.01;1.63
3.05;-1.74;-1.85;-17.97;0.98;-0.87
-1.74;-2.50;-0.98;-0.22;-11.11;-8.06
-0.98;-5.77;0.65;5.34;-8.71;-0.00
12.74;-4.14;0.65;4.57;-3.92;23.30
1.42;0.65;3.05;5.34;-2.29;-4.90
17.53;-0.98;-0.22;19.06;-3.92;-6.43
-8.17;-1.74;0.65;2.94;3.38;1.63
-2.61;-1.74;4.68;-2.72;7.41;-11.33
-0.11;-18.62;4.68;2.18;3.38;-13.72
3.05;-10.56;0.65;0.54;4.14;-1.63
3.05;-2.50;0.65;-1.09;0.98;8.06
-0.98;2.29;0.65;-9.15;-9.58;3.16
0.65;-21.13;-0.98;-4.25;5.01;11.22
2.29;3.05;-0.98;2.94;13.83;3.16
3.05;4.68;-13.94;-3.48;0.11;-8.06
-1.74;-15.46;-5.01;-1.85;-6.32;28.21
3.05;5.55;-5.01;0.54;-6.32;-4.03
3.92;-17.86;-1.85;0.54;-11.98;3.16
3.05;-0.98;-0.98;2.94;-17.53;2.40
0.65;2.29;15.14;2.18;-12.74;6.43
2.29;-2.50;-25.92;-0.22;-11.98;2.40
0.65;-3.38;-0.98;1.31;-2.29;2.40
3.05;2.29;0.65;0.54;5.77;2.40
3.92;-0.11;2.18;-1.85;4.14;2.40
-22.76;-6.53;1.42;-2.72;5.01;13.72
2.29;-5.01;5.44;-0.22;12.20;2.40
1.42;1.52;3.05;6.97;8.17;-10.45
-1.74;-0.98;9.47;0.54;5.01;-5.66
-1.74;-5.77;4.68;-8.28;19.49;-1.63
-0.98;-6.53;6.21;0.54;-10.35;-0.00
-0.98;-4.14;0.65;-2.72;-12.74;0.76
-5.77;-0.98;3.05;-3.48;-3.92;0.76
-1.74;-0.98;-0.98;11.00;-13.61;-3.27
-0.98;3.92;-4.25;-5.88;-8.71;-10.45
-30.71;6.32;-0.98;-5.88;-2.29;-20.15
3.05;2.29;-4.25;2.18;-3.92;-11.33
3.05;6.32;3.81;-2.72;1.74;-10.45
0.65;1.52;-0.98;-2.72;9.04;-21.02
-5.01;4.68;1.42;-1.09;13.83;3.16
4.68;6.32;-0.98;-1.09;0.11;16.12
-2.61;-1.74;-0.98;1.31;6.53;14.48
-0.98;-5.01;-0.98;-2.72;5.77;12.85
0.65;-1.74;-0.98;11.00;5.77;28.97
1.42;-4.14;-1.85;2.94;2.50;28.21
-11.43;-1.74;-0.98;8.60;-5.55;4.79
3.05;-0.98;-0.98;19.93;-3.92;2.40
0.65;-4.14;4.68;1.31;-3.92;0.76
-2.61;-9.04;3.05;2.94;4.14;-0.00
-1.74;-5.77;27.22;0.54;5.77;2.40
2.29;-5.01;7.08;1.31;9.04;4.79
3.05;-6.53;3.05;-1.85;5.01;-6.43
3.05;11.11;-0.98;-1.85;5.01;-3.27
-4.14;3.92;-13.94;-1.09;1.74;-10.45
-3.38;2.29;-5.01;-5.88;-6.32;-5.66
0.65;6.32;-0.98;-1.09;-7.95;-4.90
3.05;6.32;-10.67;-1.09;-2.29;0.76
3.92;6.32;-0.22;5.34;-5.55;1.63
2.29;3.92;-21.13;11.00;5.01;3.16
3.05;-0.98;-0.98;-0.22;0.98;3.16
1.42;6.32;-5.01;-25.26;-2.29;-0.00
-2.61;3.05;-0.98;-12.31;-3.92;3.16
-0.98;11.11;1.42;-15.57;1.74;-0.00
3.05;-1.74;-0.98;11.00;5.01;2.40
1.42;-2.50;11.87;-0.22;8.17;23.30
1.42;-0.11;-0.98;-3.48;8.17;2.40
-0.11;-1.74;2.18;-9.15;9.80;0.76
0.65;-7.41;15.14;-12.31;5.77;-8.93
-45.30;-5.77;7.08;-13.18;-0.65;-4.90
-1.74;2.29;4.68;-1.85;-5.55;-2.40
-9.80;2.29;3.05;-1.09;-0.65;3.16
-0.98;-6.53;-21.89;0.54;5.01;13.72
-1.74;-26.68;3.05;0.54;-5.55;2.40
-0.98;0.65;-0.22;0.54;-0.65;4.03
2.29;1.52;-1.85;6.97;-16.01;7.19
1.42;6.32;-3.38;9.37;-16.77;1.63
5.44;6.32;-5.01;3.81;-14.37;-6.43
3.05;6.32;-5.01;2.18;-20.04;-4.90
2.29;7.95;-3.38;2.94;-3.92;-3.27
1.42;6.32;-0.98;3.81;3.38;-4.90
3.05;6.32;-5.01;2.94;-0.65;-11.33
-0.98;0.65;-1.85;-0.22;-5.55;-10.45
-0.98;-2.50;-0.98;-5.88;-0.65;-8.06
4.68;-2.50;-0.98;-14.81;3.38;0.76
0.65;-1.74;-0.98;0.54;5.01;-3.27
1.42;-0.98;3.05;0.54;8.17;-24.18
3.05;1.52;-6.64;-1.09;21.89;11.22
1.42;-0.98;7.08;2.18;5.01;16.12
-6.64;-3.38;6.21;2.18;5.77;12.85
-0.98;-6.53;9.47;3.81;0.11;12.85
-0.11;-1.74;8.71;-2.72;-3.92;2.40
-0.11;-4.14;-0.98;-1.09;-12.74;2.40
-9.04;-14.59;-0.22;-1.09;5.01;1.63
-1.74;6.32;-0.98;-10.78;17.10;-6.43
3.05;5.55;-0.98;-1.09;5.01;26.57
0.65;3.05;-1.85;1.31;5.01;-8.06
-1.74;6.32;-8.28;-1.85;5.01;-13.72
3.05;1.52;-5.88;-1.85;-0.65;2.40
3.05;5.55;-2.61;-2.72;-2.29;3.16
-5.77;3.92;-1.85;2.18;0.11;2.40
3.05;2.29;-3.38;-2.72;-2.29;-10.45
2.29;0.65;12.74;2.18;5.01;-3.27
3.05;5.55;-0.98;0.54;13.83;2.40
-1.74;-1.74;1.42;-1.09;7.41;1.63
-5.01;-3.38;3.05;3.81;5.01;2.40
-4.14;-1.74;-0.22;6.97;-2.29;1.63
0.65;-5.01;3.81;11.00;-3.05;1.63
-9.04;-7.41;4.68;6.97;-8.71;2.40
-2.61;-6.53;9.47;5.34;-10.35;-8.93
0.65;-0.11;21.56;2.18;-11.98;2.40
3.05;0.65;3.81;25.48;-11.98;-9.69
-0.98;0.65;-5.01;-2.72;-18.40;-7.30
1.42;0.65;1.42;-7.51;-2.29;2.40
-5.77;0.65;-2.61;-14.81;5.01;-1.63
-0.98;3.05;-0.98;-3.48;5.01;0.76
1.42;-1.74;-0.98;-30.06;5.01;-1.63
3.05;3.92;-5.01;-2.72;5.01;2.40
3.92;3.92;-9.91;-1.85;20.26;2.40
-22.76;-1.74;-1.85;-1.09;3.38;-1.63
16.77;3.92;-5.01;-1.09;9.04;-3.27
-5.01;-20.26;-2.61;-1.09;-7.08;1.63
3.05;2.29;-0.98;-0.22;-3.92;-2.40
-5.01;6.32;4.68;-2.72;0.11;-0.00
-0.98;-0.98;-0.22;-1.85;0.98;2.40
-1.74;-5.77;-0.22;0.54;0.98;6.43
2.29;-1.74;-0.22;0.54;2.50;11.22
-4.14;-0.98;6.21;2.18;0.98;8.82
1.42;-6.53;4.68;-1.09;0.11;37.03
-0.98;-8.17;-0.98;-5.88;-4.68;2.40
-0.98;-2.50;7.08;-3.48;-7.95;4.79
-9.80;-4.14;3.05;-5.12;0.11;-1.63
-4.14;-2.50;3.05;-5.88;0.98;-11.33
2.29;2.29;3.81;2.18;5.77;2.40
0.65;1.52;3.05;-1.85;5.01;4.79
0.65;5.55;12.74;0.54;4.14;-1.63
-0.98;3.92;-9.91;6.21;4.14;-9.69
-5.77;9.47;-3.38;-1.09;5.01;-10.45
2.29;5.55;-8.28;0.54;4.14;-0.87
0.65;6.32;-0.98;-1.09;-8.71;-8.06
-0.11;6.32;-11.43;-2.72;-11.98;-3.27
1.42;5.55;-1.85;7.84;0.11;2.40
1.42;-1.74;-0.98;2.18;5.01;2.40
-17.86;2.29;1.42;2.18;-16.77;12.85
3.05;1.52;-8.28;1.31;5.01;9.69
2.29;-19.49;1.42;2.18;0.11;4.79
3.05;-3.38;0.65;-1.09;4.14;8.06
4.68;-4.14;3.81;6.21;5.01;17.75
4.68;-1.74;5.44;-6.75;-2.29;1.63
0.65;0.65;4.68;-2.72;-3.92;-8.06
-6.64;16.01;2.18;-17.21;-15.14;-10.45
-10.67;-5.01;4.68;-9.15;-13.61;-14.48
-9.80;-0.98;-0.98;-5.88;-15.14;-17.75
-8.17;-3.38;-0.98;-9.15;-24.07;-19.38
-5.77;2.29;-0.98;-1.85;4.14;-6.43
-0.11;2.29;-0.98;-1.09;5.77;6.43
3.05;3.92;-3.38;0.54;5.01;2.40
3.05;6.32;1.42;2.18;5.01;-1.63
-0.98;6.32;-1.85;3.81;6.53;2.40
0.65;3.92;-0.98;0.54;3.38;5.66
3.05;4.68;-0.98;2.18;0.11;8.06
3.05;-0.98;-0.98;-0.22;-5.55;-0.87
0.65;-0.98;-0.22;0.54;-4.68;6.43
-0.11;3.05;-0.98;0.54;-7.08;-0.00
1.42;3.05;-0.98;-1.85;26.68;-3.27
1.42;2.29;-0.98;-1.85;3.38;-1.63
2.29;-0.98;0.65;6.21;4.14;1.63
0.65;1.52;-0.98;0.54;9.80;4.79
1.42;-5.01;0.65;3.81;6.53;14.48
2.29;-4.14;3.05;5.34;6.53;14.48
-0.98;-6.53;11.87;2.18;8.17;8.06
2.29;9.47;7.84;0.54;13.07;4.79
3.05;2.29;7.08;-1.09;16.23;8.06
3.05;1.52;-0.22;7.84;20.26;2.40
-1.74;2.29;-0.98;6.21;17.10;-4.90
-0.11;4.68;-1.85;0.54;5.77;-10.45
-1.74;32.13;-3.38;-9.91;-3.05;-8.06
-0.98;6.32;-8.28;5.34;-7.95;4.03
-0.98;6.32;-3.38;16.66;-8.71;4.79
4.68;4.68;-0.98;32.78;9.80;2.40
3.92;-15.46;-0.98;10.24;-2.29;-1.63
1.42;5.55;-0.98;-3.48;0.98;-5.66
2.29;7.08;-0.98;-14.81;3.38;-8.06
-0.98;0.65;-9.04;-25.26;3.38;-23.41
1.42;-2.50;0.65;-26.90;-15.14;-17.75
-0.98;-25.16;-0.22;-22.00;-8.71;-11.33
3.05;-1.74;-0.22;-14.81;-13.61;-21.02
0.65;-0.98;-0.98;-7.51;-23.20;11.22
-5.01;-5.01;4.68;22.32;-7.95;0.76
-9.04;-1.74;3.81;2.94;-20.80;4.03
-7.41;17.53;3.81;15.90;-18.40;6.43
-2.61;-5.77;3.81;10.24;-6.32;1.63
-1.74;-1.74;9.47;3.81;2.50;2.40
-4.14;0.65;3.05;5.34;5.77;2.40
0.65;3.05;0.65;-2.72;9.04;3.16
2.29;37.68;-0.98;-27.66;3.38;-0.00
-1.74;5.55;-0.98;13.39;5.77;-1.63
-5.77;4.68;-5.01;-26.90;6.53;-3.27
1.42;5.55;-3.38;1.31;5.01;-2.40
3.05;-23.52;-0.98;-3.48;5.01;14.48
-0.11;5.55;-5.01;32.02;2.50;3.16
2.29;4.68;-1.85;-1.09;5.01;2.40
-0.98;5.55;-0.98;2.94;9.04;-3.27
1.42;4.68;-1.85;0.54;7.41;4.03
2.29;1.52;-2.61;0.54;5.01;6.43
3.05;-7.41;0.65;2.18;2.50;11.22
0.65;-2.50;2.18;3.81;0.98;10.45
0.65;-12.20;8.71;0.54;-3.05;2.40
-0.98;-0.98;3.05;-0.22;0.98;0.76
-0.98;-5.77;-3.38;0.54;5.01;13.72
-31.58;-5.01;4.68;-1.85;7.41;-8.06
-10.67;-3.38;0.65;-4.25;6.53;8.06
0.65;-5.77;-0.22;-1.09;-3.05;-0.87
-4.14;-0.98;-0.98;-5.88;-11.98;2.40
3.05;3.92;2.18;2.18;4.14;9.69
6.32;-5.77;-1.85;3.81;-1.52;-0.00
-0.98;3.92;-3.38;-1.85;-17.53;-8.06
-1.74;7.95;-5.88;-0.22;-7.08;1.63
-1.74;-4.14;-5.88;-0.22;3.38;2.40
0.65;4.68;-0.98;-1.85;5.77;8.06
2.29;4.68;-0.98;6.21;5.77;3.16
3.05;2.29;-0.98;2.18;0.11;-12.09
-1.74;-18.62;3.05;-0.22;0.98;-6.43
0.65;-1.74;0.65;0.54;3.38;-10.45
-4.14;-5.77;1.42;1.31;0.11;-12.09
0.65;-5.01;5.44;0.54;-2.29;-16.12
3.05;0.65;-0.98;2.94;-4.68;-9.69
-1.74;-0.98;3.05;2.18;3.38;-2.40
-0.11;-4.14;3.05;2.94;0.11;9.69
-0.11;-6.53;4.68;-0.22;0.11;15.25
0.65;-0.98;4.68;0.54;-3.05;13.72
-0.11;-0.98;6.21;2.94;5.01;12.85
1.42;-0.98;3.05;-4.25;5.01;16.12
-24.28;-15.46;0.65;0.54;6.53;20.91
3.05;-2.50;-0.22;-4.25;4.14;-1.63
0.65;3.05;-2.61;-3.48;9.04;-3.27
2.29;5.55;-5.01;-2.72;-5.55;-8.06
-0.98;6.32;-3.38;-2.72;-7.08;-8.93
1.42;6.32;-12.31;-1.85;-14.37;-6.43
-2.61;7.08;-1.85;-1.09;-8.71;-2.40
1.42;4.68;-0.98;-1.09;-11.11;-1.63
-14.70;-2.50;-0.98;-1.09;-5.55;3.16
3.05;2.29;-1.85;-1.85;-0.65;11.22
3.05;1.52;-0.98;6.21;4.14;13.72
15.14;-17.86;-0.98;-22.87;-4.68;-8.06
-0.98;-2.50;-0.98;-24.39;5.77;4.79
0.65;0.65;-0.22;3.81;9.80;2.40
-1.74;4.68;17.53;6.21;12.20;-2.40
-19.49;-3.38;4.68;2.18;10.56;-5.66
-7.41;-5.01;6.21;3.81;-3.92;-8.93
-3.38;-2.50;-1.85;3.81;5.01;-4.90
-5.77;-4.14;1.42;0.54;9.80;-1.63
2.29;-1.74;3.05;-0.22;5.01;2.40
-0.98;-0.98;-0.98;3.81;9.04;2.40
0.65;3.92;14.27;4.57;5.01;-8.06
-0.98;3.92;-0.98;-3.48;-7.08;0.76
3.05;6.32;-12.31;-1.85;-7.08;0.76
3.05;3.05;-2.61;-0.22;-7.95;1.63
3.05;6.32;-2.61;-1.09;-12.74;-1.63
2.29;7.08;-16.33;0.54;-12.74;1.63
24.07;-6.53;-5.01;-2.72;-12.74;-4.90
3.05;3.92;-0.98;-0.22;-5.55;-3.27
0.65;3.92;-1.85;2.94;-0.65;3.16
0.65;-4.14;-7.41;3.81;5.77;1.63
-0.98;-0.98;0.65;-18.84;5.01;2.40
3.92;-4.14;3.81;-0.22;15.46;6.43
-0.98;-0.98;-0.98;-2.72;9.80;2.40
0.65;3.92;-0.98;6.97;5.01;2.40
-0.98;27.22;2.18;11.87;5.01;4.03
0.65;-4.14;13.50;2.94;3.38;2.40
0.65;-6.53;7.08;8.60;5.01;-4.90
-4.14;-0.98;1.42;-4.25;3.38;-2.40
-1.74;1.52;11.87;-4.25;-6.32;0.76
-5.01;0.65;-0.98;-3.48;-2.29;2.40
30.49;-0.98;-0.98;-29.29;-6.32;4.79
3.05;3.92;-2.61;-5.88;-7.08;8.06
2.29;3.05;-5.01;-2.72;-11.98;4.79
2.29;5.55;-11.43;-1.85;-9.58;4.03
0.65;5.55;-5.01;-5.88;-8.71;0.76
7.95;2.29;-2.61;-1.85;-7.95;-1.63
3.05;6.32;-0.22;0.54;-6.32;2.40
-2.61;3.92;-0.98;-0.22;0.98;2.40
2.29;1.52;15.90;0.54;3.38;2.40
14.37;1.52;-0.98;0.54;4.14;1.63
-22.76;4.68;3.05;11.00;11.43;-6.43
3.05;1.52;1.42;-2.72;17.86;-8.93
1.42;-26.68;1.42;-0.22;5.77;-3.27
3.05;24.83;0.65;-4.25;7.41;-0.00
-0.98;0.65;9.47;5.34;6.53;-14.48
-0.98;-4.14;11.11;8.60;10.56;-31.47
1.42;-2.50;-8.28;11.00;6.53;-3.27
-1.74;-2.50;6.21;20.69;5.01;-25.05
-0.98;-3.38;4.68;11.00;-5.55;12.85
-9.80;-0.98;3.05;16.66;13.07;4.03
-0.98;2.29;-5.01;10.24;7.41;17.75
3.05;7.08;-0.98;-7.51;-2.29;8.06
2.29;-27.55;-9.04;-25.26;-10.35;2.40
3.05;8.71;-9.04;-26.90;-6.32;2.40
3.05;27.22;-8.28;-26.03;-7.08;2.40
-22.76;6.32;-9.04;19.06;-31.25;-3.27
0.65;-0.98;-11.43;-14.81;-9.58;-8.93
-1.74;0.65;-5.01;-13.94;-9.58;13.72
-0.98;3.05;-3.38;-11.54;-3.05;-10.45
-22.76;-4.14;-0.98;8.60;-3.92;-4.90
-0.98;-5.77;-0.98;-9.15;5.01;-1.63
-37.24;-0.98;3.05;11.00;8.17;11.22
-5.77;-4.14;-0.22;11.00;0.98;2.40
-1.74;-4.14;3.05;11.87;7.41;16.88
-31.58;-27.55;3.81;6.97;5.77;19.28
8.71;-0.98;1.42;-0.22;0.98;13.72
-0.98;-4.14;7.08;11.00;5.01;8.06
1.42;-4.14;3.05;3.81;-9.58;-0.87
1.42;-5.77;12.74;0.54;-9.58;4.03
1.42;0.65;-5.88;-2.72;-8.71;-16.12
-2.61;2.29;3.05;32.78;-3.92;-12.09
-10.67;3.92;1.42;0.54;2.50;-4.90
2.29;-4.14;-5.01;-4.25;5.01;-1.63
2.29;3.92;-5.01;-2.72;2.50;2.40
3.05;6.32;-4.25;-7.51;4.14;12.85
-14.70;4.68;-1.85;-5.88;0.98;10.45
1.42;2.29;3.05;-3.48;-2.29;14.48
3.92;2.29;-1.85;20.69;3.38;-0.87
2.29;3.05;-0.98;-2.72;2.50;1.63
-1.74;2.29;-0.98;-1.09;-3.92;-6.43
0.65;0.65;1.42;-0.22;-3.92;-8.06
3.05;5.55;6.21;6.97;8.17;1.63
-0.98;1.52;0.65;2.18;7.41;16.88
1.42;-5.01;-0.22;2.18;7.41;2.40
-2.61;-9.04;4.68;34.41;1.74;2.40
-2.61;-7.41;3.05;2.18;-22.43;-1.63
-5.01;-6.53;4.68;2.18;5.01;3.16
-2.61;-3.38;4.68;0.54;5.01;-0.00
-0.11;-2.50;3.81;-5.88;-9.58;2.40
3.05;-1.74;1.42;-2.72;-7.08;4.03
1.42;-4.14;25.59;-1.09;-3.05;-0.00
3.05;-0.98;-0.98;-27.66;-0.65;2.40
3.92;6.32;-4.25;-6.75;-1.52;-5.66
5.44;6.32;-5.01;-7.51;-3.05;-25.81
2.29;6.32;-25.16;-0.22;10.56;0.76
3.05;6.32;-0.98;-0.22;9.04;-0.00
1.42;-0.98;-0.22;2.94;10.56;0.76
2.29;3.92;-0.98;3.81;10.56;2.40
-0.98;0.65;2.18;-0.22;6.53;-23.41
0.65;-5.77;-26.79;-2.72;5.01;1.63
-0.11;-2.50;3.05;2.18;-7.08;2.40
0.65;-0.98;13.50;-5.88;-15.14;6.43
0.65;-5.01;4.68;-1.85;-21.56;-0.87
3.05;-2.50;1.42;-2.72;-26.46;-4.90
-0.98;-4.14;-0.22;0.54;-6.32;-1.63
-0.98;-5.01;3.05;0.54;-6.32;0.76
0.65;-6.53;29.62;6.97;0.98;2.40
-2.61;-0.98;3.81;0.54;9.04;-1.63
-0.98;-1.74;3.05;-1.09;13.07;2.40
3.05;-21.89;3.05;2.94;10.56;4.79
-0.11;2.29;0.65;2.18;14.59;-20.15
-0.98;2.29;-0.98;2.18;13.83;-5.66
-11.43;6.32;-1.85;-33.32;5.01;-10.45
0.65;44.21;-5.88;19.93;2.50;-4.90
0.65;2.29;-5.88;1.31;-2.29;1.63
1.42;1.52;-5.01;1.31;5.01;3.16
-2.61;3.92;-1.85;2.18;0.98;3.16
-0.98;6.32;-0.22;22.32;5.77;10.45
2.29;-10.56;-0.98;-1.85;-3.92;0.76
1.42;-0.98;-0.98;-1.09;-15.14;4.03
-0.98;4.68;-0.98;-1.09;-8.71;0.76
-1.74;-5.77;6.21;-0.22;-2.29;-4.90
2.29;-2.50;14.27;1.31;-16.77;-25.05
3.05;-3.38;1.42;-1.09;-8.71;-12.96
-0.98;-4.14;7.84;1.31;-0.65;-2.40
-2.61;-9.04;-9.91;-1.85;3.38;-2.40
-1.74;-6.53;10.24;0.54;6.53;-0.00
-1.74;-1.74;4.68;5.34;9.04;-4.03
-9.80;-5.01;7.08;2.94;8.17;4.79
-22.76;-9.80;-1.85;3.81;5.01;4.03
-2.61;-3.38;7.84;-1.85;7.41;16.88
3.05;6.32;-0.98;2.18;10.56;-6.43
3.05;6.32;-5.01;2.94;7.41;0.76
3.05;-19.49;-2.61;-1.09;4.14;-0.00
2.29;6.32;-9.04;0.54;-0.65;-1.63
3.05;2.29;-2.61;2.94;-3.05;-1.63
-13.83;4.68;-3.38;0.54;-5.55;4.03
3.05;3.92;-3.38;-6.75;-12.74;2.40
1.42;-1.74;-2.61;-4.25;-18.40;-4.90
17.53;13.50;-0.98;-23.63;-17.53;2.40
-5.01;-5.01;-0.98;-0.22;-0.65;5.66
-4.14;-0.98;0.65;16.66;2.50;11.22
0.65;-2.50;-0.98;-3.48;3.38;6.43
2.29;-1.74;1.42;2.18;2.50;2.40
0.65;-4.14;3.05;3.81;0.98;0.76
23.20;-2.50;7.84;32.78;5.77;-0.87
-2.61;-2.50;-9.04;-0.22;-6.32;1.63
-2.61;-1.74;6.21;0.54;5.01;2.40
-2.61;-2.50;3.05;-0.22;7.41;-2.40
1.42;-4.14;-0.98;0.54;6.53;-1.63
3.05;0.65;-9.91;11.87;7.41;-2.40
3.05;6.32;-0.98;36.05;2.50;-4.90
-2.61;6.32;-0.98;11.00;5.01;-24.18
-5.01;3.92;-5.88;-6.75;4.14;-19.38
3.92;-0.98;-3.38;2.18;7.41;-10.45
2.29;4.68;-3.38;2.94;13.83;7.19
3.05;6.32;-1.85;-9.15;5.77;8.06
-1.74;5.55;-0.98;-14.81;3.38;9.69
-4.14;3.05;-0.98;-14.81;1.74;7.19
3.05;-0.98;-0.98;-15.57;-3.92;-12.96
3.05;3.92;2.18;-13.94;-11.98;8.06
3.05;-2.50;-0.22;-13.94;-31.25;-4.90
-0.11;-5.77;1.42;-7.51;-17.53;-1.63
-2.61;-1.74;-0.22;-15.57;-10.35;2.40
-4.14;-2.50;1.42;-1.85;-11.98;2.40
-15.46;-3.38;9.47;2.18;-16.77;-5.66
-5.01;-6.53;3.05;-4.25;-16.77;-8.06
-2.61;-8.17;4.68;1.31;-11.11;-6.43
-5.01;-5.77;4.68;-7.51;-8.71;1.63
3.05;1.52;1.42;-2.72;0.98;-2.40
2.29;3.05;-0.22;2.94;0.11;-11.33
3.92;1.52;-4.25;-1.09;0.98;15.25
6.32;6.32;-1.85;-1.09;4.14;2.40
3.05;7.95;-2.61;2.94;8.17;28.21
3.05;6.32;-3.38;-0.22;5.01;2.40
-0.98;6.32;-4.25;6.97;5.01;2.40
3.92;0.65;-0.22;2.94;9.04;7.19
28.86;6.32;4.68;7.84;10.56;4.79
0.65;6.32;-0.98;10.24;9.04;2.40
-1.74;2.29;0.65;0.54;13.07;-1.63
3.05;-2.50;-1.85;10.24;10.56;0.76
3.05;-1.74;-0.98;9.37;17.10;4.03
-5.77;-0.98;-0.22;6.97;12.20;2.40
2.29;2.29;-21.13;2.18;7.41;0.76
0.65;0.65;3.81;-1.85;3.38;-3.27
-0.98;-2.50;-9.04;-1.85;13.83;-0.00
-5.01;-4.14;10.24;2.94;-16.77;-1.63
-4.14;-4.14;3.81;3.81;-0.65;-0.00
16.77;3.92;6.21;5.34;-6.32;1.63
-17.10;-7.41;-0.98;-0.22;-3.92;-4.90
-4.14;30.49;-1.85;5.34;-11.11;2.40
-0.98;3.92;-4.25;0.54;5.77;2.40
3.05;7.08;-2.61;2.18;9.80;7.19
2.29;5.55;-2.61;-3.48;10.56;29.84
-2.61;6.32;-2.61;-1.85;10.56;-8.06
5.44;6.32;-0.98;-5.88;-8.71;-8.06
3.92;6.32;-8.28;-31.69;-19.17;-1.63
1.42;6.32;-3.38;-3.48;-20.80;-8.06
-1.74;3.92;-2.61;-1.85;-21.56;-22.54
-4.14;2.29;-2.61;0.54;-22.43;-3.27
-11.43;-23.52;-0.98;-3.48;-24.83;-7.30
-0.98;-3.38;-0.98;-0.22;-44.21;-12.09
-5.01;-1.74;-0.98;2.18;-7.08;-14.48
-1.74;-2.50;0.65;-1.85;4.14;-3.27
-2.61;-3.38;24.83;-1.85;13.83;2.40
7.95;-5.01;7.08;-0.22;9.04;2.40
