0.98;4.46;2.40;1.74;24.94;3.38
2.61;-2.83;4.03;1.74;19.28;1.85
-1.42;-1.96;2.40;5.01;16.01;2.61
2.61;-2.83;-1.63;2.61;14.37;3.38
-0.65;2.07;-0.76;2.61;16.88;2.61
34.74;-10.89;3.27;-3.05;17.64;3.38
0.98;-12.41;0.87;2.61;7.19;2.61
-28.86;-1.96;7.30;9.80;-3.27;1.85
-0.65;4.46;-0.76;-0.65;-12.20;-21.56
-4.68;2.07;0.87;-6.32;-20.26;0.98
2.61;0.44;-0.76;-2.29;-21.89;0.98
-22.43;-18.08;-0.76;-0.65;-26.68;-7.84
2.61;1.20;-3.16;-4.68;-21.02;22.76
0.11;-2.83;-1.63;-0.65;-28.31;-1.42
0.98;0.44;-0.76;-15.14;-5.77;-0.54
3.38;-1.96;-0.76;1.74;4.79;1.85
3.38;4.46;0.00;2.61;15.25;-20.69
5.77;-1.96;-0.76;-1.42;15.25;4.25
4.14;-1.20;-8.06;5.77;26.46;3.38
1.74;2.07;0.00;7.41;25.70;2.61
2.61;-4.36;-0.76;1.74;22.43;4.25
25.16;-2.83;2.40;2.61;4.79;1.85
-0.65;-1.96;-0.76;0.11;13.61;1.85
0.98;-1.20;-17.75;1.74;4.79;-0.54
2.61;2.07;3.27;1.74;-3.27;0.22
-0.65;4.46;0.00;-0.65;-13.83;0.98
-1.42;1.20;-11.22;3.38;-18.62;-0.54
-7.08;-5.23;1.63;-3.05;-20.26;-0.54
-5.44;-1.20;-0.76;-4.68;-19.38;0.98
23.52;2.83;-0.76;-2.29;-16.23;-0.54
1.74;-0.33;-0.76;-4.68;-8.93;-0.54
-0.65;-1.20;-0.76;-4.68;-4.14;0.22
-0.65;-27.77;-0.76;-3.05;-3.27;-5.44
3.38;-1.20;-0.76;-4.68;6.32;12.31
3.38;1.20;-0.76;2.61;12.85;0.98
21.89;1.20;-18.51;0.98;16.01;-0.54
-3.92;1.20;-0.76;2.61;16.01;1.85
1.74;-7.62;-0.76;3.38;13.61;0.98
0.98;2.07;-1.63;8.17;4.79;-1.42
0.98;-1.20;1.63;6.64;4.79;0.98
2.61;1.20;0.00;5.01;2.29;0.98
0.98;1.20;4.90;6.64;-4.14;1.85
0.11;6.10;0.00;1.74;15.25;1.85
0.98;-1.96;-0.76;-1.42;-9.80;1.85
-1.42;3.70;0.00;10.67;4.79;3.38
17.86;0.44;-0.76;5.77;0.76;0.98
-5.44;2.83;21.78;5.01;0.76;1.85
-4.68;4.46;-0.76;-3.05;4.79;0.22
-2.29;2.07;-0.76;-10.35;2.29;-5.44
-0.65;0.44;-14.48;-15.14;-2.50;1.85
-1.42;0.44;-0.76;-17.53;-7.30;-2.18
-2.29;2.07;-0.76;-14.37;-8.93;-6.21
-1.42;2.07;-24.94;-6.32;-5.77;0.98
25.16;-1.20;-1.63;-13.50;-8.17;0.22
3.38;1.20;-3.16;1.74;-10.56;-0.54
5.77;-1.20;-2.40;3.38;-12.96;-0.54
3.38;-2.83;-0.76;5.01;-4.90;-2.18
5.01;2.07;-0.76;8.17;-2.50;-0.54
3.38;1.20;0.87;10.67;4.79;1.85
-17.53;-2.83;3.27;10.67;7.19;1.85
3.38;4.46;4.03;9.04;6.32;0.98
2.61;2.83;-5.66;9.80;6.32;1.85
3.38;-22.98;1.63;8.17;7.95;2.61
3.38;2.83;0.00;14.70;9.58;3.38
-4.68;1.20;0.87;12.20;17.64;1.85
0.98;0.44;4.90;5.77;20.04;1.85
-4.68;-2.83;0.87;-6.32;18.40;-2.18
-2.29;6.10;1.63;-10.35;11.98;-15.14
0.98;4.46;14.48;-15.14;5.55;22.76
-3.92;2.07;-0.76;-16.77;2.29;-2.18
2.61;3.70;-1.63;-15.14;19.28;-0.54
3.38;-2.83;-0.76;-9.47;-12.20;0.98
2.61;2.07;-0.76;-4.68;-18.62;0.98
29.19;-4.36;-2.40;-1.42;-15.35;-0.54
4.14;1.20;-1.63;2.61;4.79;-1.42
1.74;-2.83;-8.06;5.01;13.61;0.22
0.98;-1.20;-0.76;6.64;17.64;-3.05
3.38;1.20;3.27;10.67;6.32;0.98
2.61;2.07;0.87;9.04;1.52;-1.42
-0.65;-2.83;-0.76;11.43;-2.50;1.85
1.74;-1.20;3.27;-1.42;-12.96;1.85
3.38;-4.36;0.87;-6.32;-21.02;2.61
0.98;-1.20;0.00;-3.05;-23.41;0.98
0.11;-8.39;-0.76;-3.05;-21.02;-0.54
23.52;-1.20;2.40;-11.11;-13.83;-3.05
-1.42;-3.59;3.27;-12.74;2.29;1.85
-5.44;1.20;6.43;-4.68;8.82;0.98
-2.29;2.07;2.40;4.14;13.61;1.85
1.74;3.70;0.00;3.38;16.01;-0.54
-1.42;-1.20;1.63;-2.29;5.55;0.98
1.74;3.70;-0.76;-1.42;4.79;-3.05
-0.65;-2.83;0.00;-6.32;-0.11;-6.21
1.74;3.70;-0.76;-6.32;-6.53;-5.44
3.38;0.44;-0.76;-7.08;-8.93;-1.42
5.77;6.86;-1.63;-7.08;-8.17;1.85
3.38;-1.20;0.87;3.38;-5.77;6.64
3.38;1.20;-0.76;2.61;8.82;0.22
3.38;2.07;1.63;5.77;-0.11;-2.18
3.38;31.04;-0.76;6.64;4.79;1.85
-11.98;4.46;1.63;9.04;3.16;2.61
17.10;2.07;0.00;8.17;2.29;9.91
-22.43;-3.59;-1.63;24.28;0.76;-5.44
17.86;0.44;0.87;0.11;4.79;-0.54
-5.44;-30.93;-1.63;2.61;7.95;2.61
17.10;-0.33;-22.54;0.11;4.79;1.85
-5.44;-4.36;1.63;-11.11;3.16;0.98
-2.29;-4.36;0.87;-3.92;3.92;-0.54
-7.08;11.76;-0.76;-2.29;0.76;0.98
-2.29;0.44;1.63;-16.77;-8.93;0.22
-1.42;2.83;13.72;-6.32;-12.20;0.22
-1.42;2.07;-0.76;-2.29;-16.23;2.61
-1.42;-1.96;-0.76;-2.29;-15.35;-7.84
3.38;-1.20;-0.76;-0.65;-3.27;22.76
4.14;6.10;-0.76;1.74;2.29;1.85
3.38;1.20;-0.76;-25.59;4.79;0.98
7.41;5.23;-0.76;5.77;5.55;1.85
-7.08;-1.96;0.00;1.74;4.79;1.85
13.83;3.70;-26.57;0.98;4.79;-0.54
3.38;3.70;2.40;0.11;4.79;0.22
4.14;4.46;-0.76;5.01;4.79;2.61
3.38;-17.32;1.63;1.74;6.32;6.64
5.01;2.07;-1.63;-2.29;8.82;1.85
8.17;3.70;0.87;29.19;9.58;1.85
3.38;3.70;-0.76;5.01;15.25;1.85
-0.65;2.07;2.40;0.98;9.58;19.49
-7.08;-2.83;7.30;1.74;4.79;4.25
-8.71;0.44;-0.76;-1.42;4.79;1.85
-7.95;0.44;-0.76;-1.42;0.76;-2.18
-7.95;-5.23;0.87;-0.65;-3.27;-1.42
-4.68;-2.83;1.63;-3.05;-4.90;1.85
1.74;2.07;-4.03;-3.05;2.29;0.22
-13.50;-1.20;-2.40;8.17;3.92;-5.44
2.61;2.83;-0.76;-6.32;2.29;-2.18
0.98;2.83;-0.76;18.73;-8.17;-2.18
3.38;-2.83;-1.63;-3.92;-4.14;-12.63
3.38;-14.05;0.00;-2.29;-6.53;0.22
3.38;-14.05;-0.76;-1.42;-16.23;30.06
2.61;0.44;0.00;0.98;-13.83;-3.81
3.38;-4.36;-0.76;1.74;-12.96;1.85
1.74;3.70;1.63;5.01;-10.56;1.85
0.98;2.07;1.63;6.64;-4.14;1.85
3.38;2.07;4.03;6.64;3.16;1.85
-0.65;0.44;4.90;6.64;7.19;26.79
-7.95;5.23;0.00;5.77;19.28;0.98
-3.92;-1.20;0.00;1.74;13.61;1.85
-3.05;2.83;0.00;0.98;20.04;1.85
-2.29;3.70;3.27;-3.05;8.82;1.85
-7.08;1.20;0.00;-4.68;4.79;2.61
0.11;3.70;-0.76;-2.29;-3.27;1.85
0.98;2.07;-15.25;-7.08;-4.14;6.64
0.98;-3.59;-2.40;-9.47;-2.50;0.98
1.74;2.07;-0.76;-2.29;-2.50;-23.20
0.98;2.07;-2.40;-15.14;-29.95;0.98
0.98;1.20;-4.79;-3.92;0.76;2.61
0.98;0.44;-2.40;-0.65;-3.27;0.98
3.38;-1.96;-0.76;-2.29;4.79;17.10
2.61;4.46;-0.76;2.61;4.79;1.85
0.11;-4.36;1.63;6.64;15.25;1.85
2.61;0.44;0.87;6.64;18.40;1.85
3.38;6.10;-0.76;-3.05;17.64;1.85
0.98;4.46;-1.63;10.67;10.35;0.98
3.38;0.44;4.03;9.80;7.19;1.85
-9.47;1.20;0.87;-16.01;0.76;1.85
0.98;2.07;0.87;3.38;-7.30;-2.18
-11.11;3.70;3.27;31.58;-21.02;0.98
-3.05;-1.96;-0.76;3.38;-21.02;-0.54
-2.29;10.13;0.00;16.23;-21.02;-5.44
-5.44;-1.20;2.40;-7.08;-13.83;-3.81
-5.44;2.07;3.27;-10.35;-9.80;-6.21
-2.29;2.07;-0.76;-13.50;-6.53;0.22
-3.05;6.10;-0.76;-6.32;-8.93;-3.81
-4.68;2.83;-0.76;-12.74;-3.27;-0.54
3.38;2.07;-1.63;-4.68;-4.14;-2.18
3.38;-1.20;-2.40;0.11;-2.50;1.85
2.61;19.82;0.00;1.74;-0.11;-2.18
-0.65;-1.96;-1.63;2.61;3.92;-0.54
3.38;-1.96;-0.76;8.17;4.79;1.85
0.98;-1.20;-0.76;6.64;7.95;-0.54
-22.43;1.20;1.63;-6.32;11.98;6.64
2.61;3.70;-0.76;5.01;8.82;-23.96
0.98;-1.96;-17.75;1.74;5.55;-13.50
22.76;22.98;0.87;0.11;-7.30;2.61
-0.65;27.01;0.00;9.80;-6.53;-0.54
0.11;-2.83;0.87;-2.29;-6.53;-2.18
-0.65;4.46;-1.63;-1.42;-4.14;2.61
-5.44;-1.20;0.87;-15.14;1.52;1.85
-5.44;-4.36;1.63;-2.29;4.79;0.98
7.41;2.07;1.63;-1.42;11.98;0.22
0.11;-0.33;0.87;5.77;16.01;2.61
3.38;-1.96;3.27;10.67;18.40;0.98
-1.42;2.07;0.87;9.04;13.61;1.85
0.98;34.30;-0.76;7.41;4.79;-0.54
1.74;3.70;-0.76;-2.29;-0.11;1.85
4.14;2.07;-24.94;-8.71;-0.11;1.85
3.38;5.23;23.41;0.98;-5.77;1.85
2.61;2.07;0.87;-3.92;-21.02;17.10
0.98;2.83;-2.40;-11.11;-12.20;-1.42
3.38;1.20;0.87;-10.35;-7.30;-2.18
3.38;-0.33;-0.76;-12.74;-3.27;0.98
8.17;-4.36;-0.76;-6.32;-3.27;1.85
3.38;-1.96;-0.76;-3.05;-4.14;0.98
2.61;2.07;-0.76;-2.29;1.52;-5.44
1.74;3.70;-3.16;3.38;-0.87;-2.18
11.43;2.07;0.00;0.11;-0.11;-2.18
-4.68;2.07;-25.81;1.74;0.76;-5.44
0.98;2.83;1.63;-0.65;-12.20;-1.42
-4.68;4.46;0.87;25.92;-21.02;-3.05
-7.08;2.07;0.00;0.11;-16.23;-1.42
-1.42;2.07;0.87;3.38;-7.30;0.22
-3.92;-2.83;4.03;-2.29;4.79;0.22
-1.42;2.07;2.40;-1.42;7.19;5.01
4.14;-2.83;0.00;2.61;11.98;2.61
4.14;-2.83;-0.76;1.74;16.88;1.85
3.38;4.46;25.81;5.77;13.61;6.64
2.61;5.23;-0.76;-1.42;8.82;3.38
3.38;1.20;-0.76;3.38;10.35;25.16
3.38;2.07;-0.76;-1.42;10.35;0.98
1.74;2.07;-0.76;5.01;10.35;0.22
1.74;0.44;4.90;6.64;10.35;1.85
1.74;6.10;0.00;9.04;9.58;-2.18
1.74;-1.20;7.30;6.64;4.79;0.98
2.61;6.10;-0.76;9.80;4.79;4.25
3.38;0.44;-1.63;1.74;5.55;2.61
0.98;1.20;0.00;-2.29;2.29;1.85
-3.92;0.44;-0.76;7.41;-6.53;0.98
-4.68;1.20;-1.63;0.98;-25.05;1.85
-2.29;-4.36;-0.76;-36.15;-6.53;0.98
-3.05;0.44;3.27;-3.05;-7.30;-0.54
-5.44;28.64;-0.76;-7.08;-2.50;-2.18
-11.98;2.07;-0.76;-4.68;3.16;-3.81
-3.92;3.70;-0.76;-5.44;5.55;-2.18
-5.44;4.46;-5.66;-2.29;6.32;-1.42
3.38;3.70;-0.76;5.77;15.25;-3.05
-2.29;-22.11;-0.76;-5.44;2.29;-0.54
3.38;1.20;-1.63;-4.68;-0.11;1.85
17.10;-0.33;-0.76;-3.05;-6.53;-0.54
3.38;3.70;-24.94;-1.42;-7.30;-3.05
2.61;2.07;1.63;0.11;-13.83;-0.54
3.38;-2.83;0.87;5.01;-12.96;-0.54
-0.65;3.70;10.45;5.01;-9.80;1.85
0.98;-3.59;1.63;6.64;-7.30;3.38
-1.42;-1.96;0.87;6.64;3.16;1.85
3.38;-1.96;0.87;-3.05;4.79;4.25
0.98;-1.20;-16.12;6.64;10.35;16.33
1.74;-1.96;4.03;0.11;10.35;0.98
-3.05;-1.20;-26.57;1.74;4.79;0.98
-1.42;-4.36;0.00;-2.29;2.29;0.22
-3.92;2.07;3.27;-2.29;0.76;0.98
0.11;2.07;0.00;-6.32;-4.14;-3.81
0.11;-6.86;-0.76;-3.92;-4.14;-1.42
1.74;-1.20;-0.76;-5.44;-3.27;0.22
-0.65;2.07;-1.63;-10.35;-0.87;1.85
2.61;4.46;-0.76;-1.42;8.82;0.22
10.67;4.46;-0.76;36.37;-2.50;0.98
25.16;2.07;-0.76;1.74;16.88;1.85
2.61;-1.96;29.08;5.01;15.25;2.61
7.41;2.07;1.63;5.77;9.58;-8.60
4.14;-1.96;-0.76;1.74;4.79;3.38
5.77;0.44;6.43;1.74;4.79;4.25
-7.08;-8.39;0.00;6.64;0.76;0.22
3.38;1.20;0.87;-11.11;-8.93;0.98
0.11;1.20;-0.76;5.77;-16.23;0.98
0.98;0.44;10.45;6.64;-8.93;-3.81
0.98;2.83;-0.76;-0.65;-19.38;0.22
2.61;2.07;0.87;-3.05;-8.17;0.98
-5.44;-1.20;4.03;-0.65;-12.96;-7.08
-1.42;1.20;-24.94;-4.68;3.92;-3.81
-0.65;-1.20;-0.76;-28.10;-17.86;0.22
-1.42;18.19;0.00;-15.14;-15.35;-0.54
-4.68;27.01;-0.76;-28.10;-12.20;-1.42
-3.05;0.44;-8.06;-3.92;-0.11;0.98
0.98;-1.20;-0.76;-3.05;4.79;-3.05
0.98;1.20;-4.03;-2.29;3.92;-8.60
0.98;-1.20;-0.76;-10.35;7.95;0.98
1.74;-1.20;-0.76;-4.68;12.85;-0.54
3.38;-2.83;-16.12;3.38;19.28;-11.11
2.61;-1.20;-0.76;5.01;9.58;1.85
13.83;1.20;-4.79;3.38;10.35;0.22
3.38;1.20;-0.76;9.04;4.79;15.46
3.38;-1.20;0.00;8.17;1.52;3.38
0.98;2.83;4.03;9.04;-4.90;1.85
-3.92;6.10;4.90;-22.43;2.29;1.85
2.61;7.73;3.27;5.01;5.55;3.38
21.13;1.20;16.99;1.74;4.79;1.85
1.74;1.20;0.00;-6.32;3.92;1.85
-0.65;-5.23;-0.76;-1.42;4.79;-0.54
-4.68;2.07;0.87;-12.74;-0.11;2.61
-6.32;1.20;2.40;-7.08;-1.74;20.36
1.74;4.46;1.63;-31.25;-5.77;0.98
21.89;2.07;0.87;-4.68;-17.86;-5.44
-4.68;-1.20;-0.76;-4.68;-16.23;0.98
-0.65;1.20;-0.76;-3.05;-11.33;2.61
-3.92;1.20;-0.76;-2.29;-9.80;-1.42
3.38;0.44;-3.16;-32.13;-3.27;1.85
3.38;2.07;-0.76;-15.14;-0.87;1.85
2.61;2.07;-1.63;9.80;6.32;-0.54
-23.20;-1.20;0.87;21.13;28.10;3.38
3.38;-19.71;6.43;27.55;65.12;1.85
1.74;3.70;-21.78;22.76;41.82;0.98
5.77;2.07;0.87;4.14;39.42;-23.96
1.74;31.91;1.63;-2.29;18.40;0.22
24.28;2.07;3.27;-2.29;-0.87;0.98
2.61;3.70;3.27;-2.29;-19.38;-2.18
2.61;4.46;-0.76;-12.74;-34.74;-1.42
2.61;0.44;1.63;-15.14;-49.22;-6.21
-1.42;3.70;0.87;-50.64;-58.91;-0.54
2.61;1.20;0.87;-22.43;-54.89;0.22
-2.29;0.44;24.18;-19.17;-33.11;-0.54
0.11;-3.59;-0.76;-13.50;-12.96;-5.44
-5.44;-1.96;-1.63;1.74;0.76;-2.18
-3.92;-3.59;-1.63;0.11;14.37;-7.08
-2.29;-1.96;-1.63;8.17;21.67;1.85
16.23;-1.20;-0.76;5.77;17.64;-4.57
3.38;1.20;-3.16;5.01;30.49;-2.18
2.61;6.10;-0.76;10.67;18.40;0.98
2.61;2.07;12.09;10.67;11.98;1.85
8.17;-1.96;-11.22;5.77;4.79;9.04
-0.65;1.20;3.27;1.74;-0.87;-2.18
3.38;1.20;0.00;5.77;0.76;1.85
4.14;6.10;-0.76;3.38;4.79;1.85
3.38;-0.33;-0.76;6.64;3.92;0.98
2.61;-2.83;16.12;2.61;3.92;0.22
1.74;-1.96;-0.76;6.64;6.32;17.10
-32.89;1.20;0.87;2.61;1.52;1.85
-6.32;4.46;0.87;-0.65;-0.11;1.85
-4.68;-2.83;-0.76;-0.65;3.92;0.98
-15.14;3.70;1.63;17.86;2.29;0.98
1.74;1.20;0.87;2.61;2.29;2.61
-3.05;1.20;3.27;-2.29;2.29;1.85
-5.44;2.07;1.63;0.98;0.76;1.85
2.61;3.70;-1.63;-2.29;-6.53;-1.42
-7.08;-3.59;-0.76;-3.05;-4.90;-31.25
3.38;2.83;-0.76;-2.29;-2.50;0.98
-29.62;18.95;-0.76;-2.29;4.79;1.85
1.74;1.20;-1.63;-1.42;17.64;-0.54
2.61;5.23;0.87;0.11;17.64;-12.63
1.74;-19.71;0.00;1.74;10.35;-3.05
1.74;-1.20;0.87;7.41;4.79;0.98
1.74;1.20;-1.63;3.38;-1.74;2.61
2.61;-1.20;4.03;-13.50;-8.93;2.61
0.98;31.91;-1.63;11.43;-34.74;7.41
0.11;8.49;-1.63;3.38;-18.62;1.85
3.38;2.07;1.63;6.64;-16.99;0.98
0.98;21.34;1.63;-1.42;-12.96;-3.81
21.89;0.44;-0.76;5.77;0.76;2.61
0.11;-1.96;0.87;17.86;-3.27;0.22
-2.29;-24.50;4.90;5.01;11.98;0.22
0.98;11.76;0.87;17.10;12.85;-6.21
-5.44;6.10;0.00;-37.68;8.82;-3.05
-0.65;2.07;-0.76;-3.92;11.98;0.98
20.26;27.88;0.00;-1.42;5.55;-5.44
0.98;0.44;-1.63;-5.44;-2.50;-2.18
-0.65;0.44;-3.16;-3.92;-8.17;-3.05
0.98;-23.74;-0.76;-2.29;-16.23;2.61
4.14;-1.20;-1.63;-3.05;-17.86;1.85
3.38;-4.36;-0.76;-6.32;-22.65;-1.42
2.61;-1.96;-0.76;24.28;-21.02;-3.05
0.98;0.44;-0.76;13.83;-11.33;-1.42
1.74;-1.96;0.00;-1.42;4.79;26.03
1.74;0.44;4.03;0.11;8.82;2.61
2.61;2.07;-0.76;2.61;7.19;4.25
2.61;0.44;1.63;6.64;3.92;-19.93
4.14;0.44;0.00;37.24;4.79;2.61
2.61;5.23;-0.76;8.17;-3.27;-2.18
0.98;2.07;3.27;4.14;1.52;1.85
0.98;-1.96;1.63;-27.22;12.85;-0.54
-2.29;2.07;3.27;-0.65;18.40;1.85
-1.42;-2.83;-16.12;-3.05;16.88;0.98
-7.95;-1.96;1.63;0.11;15.25;-3.81
-0.65;1.20;-0.76;19.49;-0.11;0.98
-0.65;3.70;4.03;1.74;0.76;1.85
3.38;1.20;-0.76;-1.42;-2.50;-3.05
0.98;3.70;-0.76;-1.42;-13.83;1.85
3.38;2.07;-1.63;-6.32;-12.96;-2.18
5.01;4.46;-2.40;-0.65;-8.93;-5.44
3.38;3.70;12.09;-3.05;-0.11;-3.05
-0.65;4.46;-0.76;-3.92;16.88;1.85
2.61;2.07;0.87;0.98;4.79;-0.54
0.11;14.92;0.87;2.61;25.70;0.22
3.38;-1.20;0.87;1.74;-5.77;1.85
1.74;-4.36;-0.76;-2.29;-12.20;-5.44
-2.29;-1.20;0.87;-3.05;-3.27;0.22
3.38;-1.96;-0.76;0.11;-12.20;0.22
-10.35;-1.96;-0.76;-2.29;-4.14;1.85
0.11;3.70;30.60;-0.65;-4.90;13.07
-4.68;1.20;0.00;-2.29;3.92;-2.18
-3.92;-4.36;-0.76;-0.65;-6.53;1.85
-3.05;-4.36;17.75;-3.92;10.35;-0.54
-3.92;-4.36;2.40;11.43;4.79;2.61
-1.42;1.20;19.38;2.61;6.32;1.85
2.61;-1.20;0.00;-2.29;5.55;7.41
2.61;-1.96;-0.76;1.74;4.79;1.85
3.38;-1.20;-0.76;-1.42;9.58;22.00
-4.68;-1.96;-0.76;2.61;16.88;1.85
3.38;3.70;-0.76;3.38;15.25;-1.42
3.38;-9.26;-0.76;5.77;9.58;-2.18
0.98;6.10;-3.16;0.11;4.79;-3.81
2.61;1.20;-2.40;-3.05;17.64;1.85
0.98;4.46;1.63;0.11;-4.90;0.98
3.38;-1.20;4.03;9.04;4.79;1.85
2.61;6.10;-0.76;0.11;-2.50;1.85
5.77;3.70;12.09;5.01;0.76;1.85
-0.65;-1.20;-0.76;5.01;-3.27;0.98
3.38;0.44;0.87;1.74;-4.14;0.22
-1.42;-2.83;0.87;-2.29;-8.93;-5.44
-3.92;-1.20;-0.76;2.61;-10.56;-0.54
-13.50;-22.11;-0.76;-1.42;-12.20;5.88
-6.32;0.44;3.27;-0.65;-22.65;1.85
-7.08;-2.83;-0.76;-6.32;-7.30;1.85
1.74;-7.62;-0.76;-9.47;-2.50;1.85
0.11;6.86;-1.63;-12.74;4.79;-0.54
0.98;-2.83;-0.76;-7.08;15.25;0.98
0.98;4.46;-1.63;-4.68;10.35;-5.44
3.38;3.70;-3.16;-2.29;17.64;-3.05
3.38;3.70;-1.63;3.38;13.61;-0.54
4.14;-1.96;-0.76;-0.65;13.61;1.85
3.38;2.07;0.87;5.01;16.88;1.85
-0.65;2.07;0.87;-0.65;11.98;1.85
0.98;5.23;0.00;9.80;4.79;1.85
3.38;19.82;1.63;6.64;-18.62;0.22
3.38;-31.80;0.87;6.64;-22.65;-1.42
6.64;1.20;1.63;-2.29;-28.31;0.22
3.38;6.10;1.63;-1.42;-29.95;0.98
-0.65;5.23;0.00;1.74;-30.71;20.36
1.74;-1.20;1.63;-3.05;-21.89;-2.18
0.98;-14.92;-0.76;0.11;-8.17;2.61
13.83;2.83;-0.76;1.74;3.92;1.85
2.61;3.70;-3.16;-2.29;16.01;-7.08
5.01;3.70;0.87;10.67;30.49;0.22
-3.92;6.10;0.87;12.20;30.49;1.85
0.11;3.70;-12.85;10.67;30.49;13.94
-2.29;3.70;0.00;6.64;30.49;0.22
3.38;-30.17;-1.63;-0.65;24.07;0.22
3.38;3.70;-4.03;-3.92;16.88;-1.42
2.61;-1.20;0.00;-10.35;6.32;18.73
4.14;3.70;-0.76;-0.65;10.35;1.85
3.38;-1.96;14.48;9.80;-5.77;1.85
1.74;2.07;0.00;5.77;2.29;-2.18
-18.40;26.24;2.40;-7.08;-13.83;4.25
3.38;2.07;-0.76;-16.01;3.92;0.98
2.61;7.73;3.27;-7.95;-12.96;1.85
0.98;5.23;-0.76;-6.32;-16.99;-0.54
0.11;-1.20;1.63;-11.11;-13.83;-3.81
-3.05;-1.96;16.99;-10.35;-12.20;-3.81
-1.42;1.20;0.00;-2.29;-2.50;21.13
-0.65;1.20;-1.63;-1.42;-2.50;-2.18
-1.42;2.83;0.87;0.11;-6.53;3.38
-3.92;0.44;0.87;-1.42;0.76;-2.18
-2.29;27.88;2.40;2.61;-5.77;-0.54
-5.44;-1.96;-2.40;1.74;-6.53;-25.59
-3.92;1.20;0.87;-0.65;-8.17;-22.32
-24.07;2.07;-0.76;0.98;-8.17;0.98
-4.68;3.70;-0.76;-5.44;3.16;0.98
-0.65;2.83;-0.76;-1.42;-0.87;-2.18
8.17;1.20;-2.40;5.01;5.55;-1.42
2.61;6.10;0.00;9.80;16.01;-0.54
5.77;-1.96;1.63;36.37;16.88;4.25
3.38;-1.96;-0.76;8.17;8.82;3.38
0.98;1.20;-0.76;9.80;4.79;1.85
2.61;2.07;4.90;6.64;4.79;4.25
15.46;-2.83;4.90;0.11;0.76;1.85
0.11;-1.96;0.00;2.61;30.49;0.98
2.61;1.20;0.87;3.38;3.16;1.85
0.11;5.23;2.40;-0.65;2.29;0.22
0.11;-20.47;1.63;-3.92;4.79;-2.18
-2.29;0.44;-12.09;-2.29;10.35;-2.18
-14.37;6.10;0.87;-1.42;6.32;0.98
-1.42;-1.20;-0.76;-7.08;15.25;0.22
-16.77;-22.11;0.87;36.37;-0.11;0.98
-3.92;-1.20;11.33;-3.05;-2.50;0.22
3.38;3.70;-1.63;-0.65;-33.11;0.98
-0.65;3.70;-0.76;-6.32;-9.80;-2.18
3.38;-1.96;0.00;0.11;-12.20;-5.44
11.43;0.44;-2.40;1.74;-7.30;0.98
4.14;2.07;-1.63;1.74;0.76;-11.87
3.38;-6.86;-1.63;0.11;11.98;1.85
4.14;2.83;0.00;0.11;10.35;1.85
3.38;3.70;-0.76;0.11;22.43;0.98
3.38;2.07;0.00;2.61;16.01;0.22
3.38;6.10;0.87;2.61;11.98;0.22
2.61;-1.96;4.03;-28.86;2.29;1.85
-0.65;-1.20;0.00;0.11;-7.30;0.98
3.38;-1.20;-0.76;5.77;-9.80;-0.54
1.74;-22.11;4.90;1.74;-16.23;-2.18
2.61;2.07;-24.18;0.11;-12.20;1.85
-3.92;1.20;-0.76;1.74;-12.96;3.38
-16.01;-5.23;4.03;-1.42;-8.93;-0.54
-21.56;-6.86;0.87;-5.44;-4.14;0.98
-5.44;0.44;0.00;-3.05;-4.14;-6.21
-3.05;1.20;-1.63;-7.08;2.29;-3.81
-1.42;2.07;-0.76;-7.08;3.92;-3.05
0.98;-1.96;-5.66;-0.65;-3.27;0.22
1.74;1.20;-0.76;-0.65;-4.14;1.85
3.38;3.70;-0.76;-0.65;-8.93;-1.42
1.74;2.07;-0.76;-4.68;-8.17;1.85
3.38;4.46;1.63;0.11;-12.20;1.85
-7.95;0.44;-0.76;5.77;-7.30;-8.60
3.38;3.70;1.63;-0.65;7.19;0.98
3.38;3.70;-26.57;6.64;3.16;12.31
5.77;-2.83;1.63;3.38;4.79;-2.18
-11.98;-7.62;1.63;-0.65;16.01;1.85
1.74;-2.83;1.63;8.17;15.25;0.98
0.11;1.20;-26.57;12.20;15.25;1.85
-4.68;-2.83;-8.06;7.41;15.25;0.98
-7.08;-9.26;1.63;18.73;5.55;1.85
0.98;1.20;-1.63;-9.47;7.19;0.22
3.38;0.44;-0.76;-7.95;5.55;-2.18
2.61;-4.36;3.27;-6.32;0.76;1.85
-3.92;3.70;0.87;-11.11;-16.99;0.22
-4.68;-1.20;-0.76;-14.37;-0.11;1.85
0.98;-1.20;0.00;-7.08;2.29;1.85
3.38;27.88;-0.76;-1.42;5.55;1.85
3.38;3.70;-0.76;1.74;6.32;1.85
2.61;-23.74;-3.16;1.74;4.79;1.85
4.14;-2.83;-6.43;3.38;3.16;7.41
3.38;3.70;-0.76;37.24;4.79;1.85
1.74;-23.74;1.63;10.67;3.92;0.98
4.14;2.07;-0.76;10.67;3.16;1.85
3.38;-1.20;1.63;10.67;7.19;1.85
3.38;1.20;6.43;9.80;6.32;3.38
-10.35;3.70;-0.76;-0.65;11.98;1.85
3.38;-2.83;0.00;6.64;4.79;0.98
-17.53;-4.36;-0.76;3.38;1.52;1.85
2.61;2.83;2.40;-1.42;-6.53;2.61
-2.29;3.70;1.63;1.74;-12.20;-2.18
1.74;6.10;-5.66;5.01;-10.56;-0.54
0.98;2.07;-0.76;-2.29;-21.02;0.22
-4.68;1.20;-0.76;-12.74;-28.31;-5.44
-5.44;1.20;0.00;-15.14;-22.65;-5.44
-8.71;-0.33;-0.76;-15.14;-19.38;-5.44
-4.68;2.07;-2.40;-16.77;-16.23;-11.87
-3.92;0.44;-1.63;-10.35;-12.96;-5.44
3.38;-2.83;12.96;-3.05;-15.35;0.22
3.38;-1.20;-0.76;-15.14;-8.93;-3.05
2.61;-1.20;-4.79;-0.65;-4.90;0.22
4.14;1.20;0.87;5.77;10.35;13.07
1.74;11.76;-1.63;8.17;12.85;1.85
4.14;-1.96;-0.76;10.67;20.04;-8.60
1.74;18.95;-2.40;35.61;19.28;-0.54
-0.65;-1.20;1.63;9.80;18.40;0.98
3.38;-1.20;0.87;-3.05;20.04;3.38
2.61;-1.20;0.00;6.64;9.58;2.61
2.61;2.07;2.40;5.77;4.79;1.85
1.74;1.20;-0.76;6.64;3.16;0.22
3.38;6.10;-0.76;-12.74;-4.90;1.85
3.38;1.20;0.87;-3.92;-16.23;1.85
-4.68;-1.20;0.87;-2.29;-7.30;0.22
-5.44;-5.99;4.03;4.14;-2.50;1.85
-7.08;-28.53;0.87;2.61;-4.14;1.85
-1.42;-5.99;-0.76;-0.65;4.79;1.85
-3.92;-2.83;-0.76;-8.71;6.32;0.98
-1.42;-0.33;-0.76;-15.14;10.35;2.61
-7.08;-0.33;-2.40;-13.50;7.19;1.85
3.38;-18.95;-3.16;-15.14;6.32;1.85
3.38;-4.36;0.00;-3.05;3.92;0.22
0.98;1.20;0.00;-3.92;0.76;-19.93
5.01;3.70;0.00;5.77;-6.53;0.22
1.74;4.46;0.87;10.67;-9.80;-3.05
3.38;27.01;-0.76;10.67;-6.53;1.85
1.74;2.83;3.27;22.76;-8.17;0.22
18.73;4.46;1.63;19.49;5.55;1.85
-5.44;1.20;3.27;12.20;26.46;5.88
-0.65;0.44;1.63;5.01;9.58;12.31
1.74;2.07;3.27;1.74;4.79;-3.81
1.74;6.10;-0.76;21.13;4.79;-0.54
-3.92;1.20;-0.76;-6.32;-0.87;1.85
0.98;2.07;0.87;-3.05;-3.27;0.98
-3.92;1.20;0.87;-3.05;-15.35;2.61
-1.42;26.24;4.03;10.67;-25.05;1.85
-3.92;-2.83;0.00;-4.68;-10.56;0.98
1.74;-1.96;-1.63;-5.44;-5.77;-16.66
-0.65;-1.20;-0.76;-3.05;-0.87;1.85
1.74;-10.02;0.87;-25.59;2.29;-2.18
-0.65;1.20;-2.40;-10.35;3.92;0.98
3.38;2.07;0.87;-0.65;-16.99;-0.54
4.14;0.44;-1.63;6.64;4.79;-8.60
3.38;2.83;-1.63;8.17;5.55;-0.54
1.74;2.83;0.87;5.01;5.55;-5.44
4.14;-6.86;0.87;32.34;2.29;0.22
4.14;3.70;0.87;-25.59;-0.11;5.88
3.38;-1.20;0.87;6.64;-7.30;1.85
3.38;2.07;-0.76;9.04;0.76;1.85
0.98;5.23;3.27;-0.65;-2.50;-19.17
-0.65;1.20;0.87;5.01;-8.17;-2.18
-3.92;-1.20;-0.76;-3.92;-4.90;2.61
2.61;-1.96;-0.76;-1.42;-2.50;-0.54
-1.42;-5.23;-1.63;-2.29;3.92;-2.18
-2.29;-1.20;-0.76;1.74;4.79;0.22
-3.92;0.44;3.27;6.64;6.32;9.91
2.61;2.07;0.87;5.01;4.79;5.88
-2.29;1.20;1.63;1.74;-3.27;1.85
-0.65;2.07;-1.63;-3.92;2.29;0.98
2.61;3.70;-2.40;-3.05;-0.11;4.25
2.61;27.01;-0.76;0.11;4.79;-1.42
3.38;2.83;-0.76;-1.42;11.98;1.85
3.38;3.70;-0.76;-1.42;16.88;-23.20
3.38;-14.92;1.63;-2.29;18.40;0.98
2.61;-5.99;3.27;-4.68;8.82;-0.54
-0.65;31.04;-0.76;-4.68;4.79;2.61
1.74;5.23;13.72;9.04;1.52;1.85
3.38;-2.83;-0.76;0.11;-3.27;22.76
1.74;-7.62;0.87;6.64;-13.83;-1.42
0.11;-1.96;-0.76;6.64;-8.17;1.85
0.98;0.44;0.00;-2.29;-15.35;-0.54
0.98;-4.36;1.63;-2.29;-12.96;-0.54
-3.92;2.07;-9.69;0.11;-3.27;0.98
-2.29;0.44;1.63;-2.29;-4.14;-3.05
-3.92;3.70;1.63;-13.50;-7.30;-2.18
-4.68;0.44;21.02;-3.05;-4.14;17.10
0.98;0.44;3.27;-1.42;-3.27;9.91
1.74;4.46;-26.57;-2.29;-7.30;-0.54
3.38;3.70;-0.76;-3.05;-2.50;0.98
3.38;6.10;-0.76;-2.29;3.16;1.85
3.38;4.46;-1.63;-0.65;2.29;-6.21
3.38;4.46;-4.79;5.01;8.82;-2.18
3.38;3.70;-1.63;4.14;16.01;13.07
0.98;3.70;0.00;6.64;13.61;0.98
3.38;1.20;-24.94;6.64;18.40;6.64
4.14;5.23;-0.76;40.40;21.67;0.22
2.61;3.70;-0.76;-7.08;18.40;1.85
3.38;2.07;-0.76;9.04;10.35;1.85
2.61;-3.59;3.27;10.67;3.16;1.85
1.74;-3.59;4.90;1.74;-5.77;-2.18
-0.65;0.44;-0.76;0.11;-16.99;0.22
0.98;1.20;0.00;-1.42;-25.92;-3.81
-5.44;-3.59;-3.16;-3.05;-35.50;-8.60
-1.42;-2.83;0.00;-6.32;-33.98;-3.05
-0.65;-1.20;2.40;-20.80;-20.26;-3.81
-25.59;3.70;3.27;1.74;-2.50;7.41
-1.42;-2.83;1.63;0.11;10.35;-23.96
23.52;4.46;-0.76;-4.68;28.10;0.98
2.61;2.83;-0.76;-11.11;12.85;-3.05
1.74;1.20;-4.79;-7.08;36.15;0.98
3.38;-6.86;-0.76;-14.37;23.30;-0.54
3.38;6.10;-3.16;-9.47;15.25;1.85
2.61;4.46;-0.76;-15.14;-0.11;1.85
1.74;-1.96;-0.76;10.67;-9.80;1.85
3.38;-2.83;-0.76;6.64;-21.02;-2.18
3.38;4.46;11.33;6.64;-32.34;-19.17
21.89;1.20;0.00;9.80;-28.31;0.22
-3.92;2.83;-0.76;8.17;-23.41;-2.18
-1.42;6.10;0.00;25.92;-5.77;1.85
3.38;6.10;0.00;-28.10;3.16;1.85
-0.65;3.70;0.87;-16.01;12.85;1.85
-0.65;1.20;-0.76;-11.11;17.64;-3.05
-0.65;-1.20;-0.76;-5.44;16.88;0.98
-3.92;2.07;-1.63;-5.44;16.88;-7.08
-2.29;-7.62;0.87;2.61;3.92;0.98
-3.92;3.70;-0.76;-24.07;4.79;1.85
0.98;5.23;0.87;3.38;-10.56;1.85
-1.42;2.07;4.03;9.04;-16.99;14.70
3.38;1.20;-14.48;-3.05;-15.35;1.85
-0.65;-2.83;-2.40;1.74;-6.53;-3.05
1.74;0.44;-3.16;-9.47;-8.93;0.22
3.38;-30.17;-0.76;-13.50;3.16;-2.18
3.38;5.23;-0.76;-6.32;8.82;1.85
2.61;0.44;0.87;-40.95;15.25;5.88
3.38;1.20;8.06;-0.65;11.98;27.55
3.38;2.07;-0.76;2.61;11.98;2.61
0.11;-0.33;-3.16;6.64;7.19;2.61
3.38;-1.96;-0.76;8.17;6.32;2.61
-26.46;-28.53;0.87;10.67;4.79;1.85
2.61;3.70;2.40;35.61;3.16;1.85
8.17;2.07;1.63;9.04;3.92;4.25
2.61;2.07;-8.82;5.77;4.79;3.38
-2.29;20.58;-0.76;-1.42;-0.87;-0.54
-4.68;5.23;1.63;-4.68;5.55;-2.18
-4.68;-1.20;-1.63;-1.42;0.76;5.88
-0.65;-1.20;3.27;-4.68;-16.23;1.85
0.11;2.07;-0.76;-6.32;-2.50;-0.54
0.98;-1.96;-0.76;-7.95;-5.77;-6.21
-3.92;-2.83;-0.76;-7.95;-5.77;-2.18
0.98;14.16;-0.76;-6.32;-2.50;-5.44
4.14;2.07;-0.76;-7.95;2.29;-27.22
19.49;6.10;-0.76;-3.05;-0.11;-0.54
3.38;6.10;-0.76;-3.05;-0.87;0.98
3.38;6.86;0.00;2.61;3.92;0.98
2.61;-4.36;-0.76;-12.74;-7.30;1.85
3.38;0.44;0.00;5.01;-8.17;1.85
3.38;-1.20;-0.76;5.01;-5.77;2.61
3.38;9.26;-0.76;-19.17;-4.14;3.38
-7.95;20.58;0.00;13.07;3.92;1.85
2.61;3.70;0.87;9.04;4.79;1.85
2.61;1.20;0.00;10.67;13.61;5.88
-3.92;-1.20;-0.76;11.43;4.79;1.85
-1.42;-1.20;0.87;11.43;5.55;0.22
0.98;-1.96;-0.76;27.55;-18.62;-2.18
-4.68;-1.96;-0.76;-1.42;-0.11;1.85
-4.68;-5.99;-0.76;-7.08;-7.30;-3.81
-22.43;-1.20;0.00;-32.13;-8.17;-0.54
-0.65;-28.53;-1.63;-12.74;-3.27;1.85
-0.65;1.20;0.87;-9.47;4.79;1.85
3.38;-1.20;-0.76;-7.95;4.79;-14.27
-11.98;34.30;-4.79;-12.74;-8.93;0.98
4.14;-1.96;-0.76;-2.29;13.61;1.85
4.14;1.20;-0.76;6.64;4.79;1.85
0.98;-1.96;1.63;5.77;2.29;0.98
3.38;1.20;-0.76;10.67;-2.50;-3.81
3.38;1.20;0.00;10.67;-8.17;-0.54
3.38;0.44;0.00;10.67;-10.56;1.85
3.38;3.70;1.63;8.17;-0.87;6.64
2.61;18.95;0.00;5.01;4.79;0.98
-10.35;3.70;0.00;7.41;16.88;2.61
2.61;1.20;-0.76;3.38;18.40;1.85
3.38;4.46;1.63;-7.08;16.01;1.85
-3.92;1.20;4.90;-3.92;4.79;0.22
-5.44;-1.20;4.03;12.20;-5.77;1.85
-8.71;-26.90;0.00;-11.11;-16.99;-3.05
18.73;2.07;1.63;-6.32;-30.71;-0.54
-0.65;-1.20;-0.76;-11.11;-38.77;-0.54
-1.42;-1.96;3.27;-6.32;-42.04;0.98
-1.42;10.89;-0.76;-20.04;-31.47;0.22
-3.92;1.20;-0.76;-13.50;-21.02;-3.81
2.61;-1.20;-0.76;-4.68;-2.50;-5.44
1.74;-1.20;-15.25;-0.65;8.82;-3.05
25.92;5.23;-20.91;9.04;17.64;-2.18
2.61;1.20;0.00;8.17;20.04;0.98
3.38;-7.62;-0.76;8.17;26.46;1.85
3.38;3.70;9.69;9.04;21.67;2.61
3.38;1.20;1.63;8.17;20.04;12.31
3.38;3.70;1.63;5.77;8.82;9.04
3.38;2.83;4.03;5.01;8.82;4.25
0.11;-1.96;4.90;5.77;4.79;13.07
-11.98;2.07;0.00;3.38;3.16;2.61
-1.42;1.20;-0.76;-1.42;4.79;2.61
5.01;-1.96;3.27;10.67;13.61;5.01
-0.65;1.20;-0.76;9.04;25.70;4.25
17.86;-1.20;0.00;-2.29;20.04;2.61
-0.65;4.46;0.00;-12.74;24.07;1.85
-0.65;-3.59;0.87;-13.50;19.28;-2.18
0.98;-1.96;-0.76;-16.01;3.92;1.85
-1.42;-1.20;-2.40;-15.14;-15.35;-0.54
0.98;-2.83;-2.40;-6.32;-19.38;-2.18
1.74;-1.96;-18.51;-4.68;-32.34;-5.44
3.38;30.27;-0.76;-2.29;-46.06;-15.14
27.55;1.20;-0.76;-2.29;-28.31;-7.08
0.98;2.07;-0.76;4.14;-46.83;-6.21
2.61;-0.33;-0.76;3.38;-31.47;-3.81
-18.40;2.07;-1.63;-20.04;-5.77;-2.18
-4.68;6.10;-0.76;1.74;5.55;-0.54
3.38;1.20;-0.76;0.11;8.82;-2.18
1.74;2.07;-0.76;9.04;13.61;0.98
0.11;8.49;0.00;29.19;20.91;0.98
-0.65;6.10;-18.51;5.77;20.04;5.88
3.38;4.46;4.03;2.61;19.28;5.88
-1.42;3.70;3.27;6.64;16.88;15.46
-1.42;5.23;8.06;1.74;14.37;3.38
-0.65;3.70;4.03;6.64;8.82;1.85
1.74;1.20;0.87;-3.05;15.25;0.22
0.98;0.44;3.27;-12.74;13.61;3.38
3.38;1.20;0.87;3.38;16.01;11.43
3.38;1.20;0.87;10.67;10.35;0.22
3.38;3.70;-0.76;10.67;14.37;1.85
3.38;-1.20;0.00;5.77;9.58;0.22
3.38;0.44;-0.76;-3.92;-2.50;0.22
3.38;1.20;-0.76;-15.14;0.76;1.85
9.04;-1.96;-4.79;-15.14;-7.30;-6.21
3.38;-1.20;1.63;-13.50;-15.35;-23.96
-1.42;4.46;-2.40;-11.98;-18.62;0.98
3.38;3.70;-1.63;0.11;-15.35;-0.54
0.11;-2.83;-0.76;2.61;-18.62;-0.54
-1.42;2.83;-0.76;5.01;-16.23;0.22
0.98;2.07;3.27;5.77;-16.99;-2.18
-10.35;0.44;-1.63;6.64;-12.20;-2.18
4.14;1.20;0.00;10.67;-4.14;-23.20
-5.44;-1.20;-5.66;1.74;2.29;1.85
-0.65;-2.83;4.90;-3.05;4.79;1.85
-5.44;-1.96;0.00;-3.92;3.92;-2.18
1.74;3.70;-0.76;0.11;5.55;1.85
-0.65;0.44;0.00;2.61;4.79;1.85
-33.65;30.27;0.87;-28.86;4.79;0.22
3.38;-19.71;-2.40;-3.05;0.76;0.98
3.38;3.70;-0.76;-2.29;3.92;-23.96
5.01;-1.96;-0.76;-7.08;8.82;2.61
3.38;-1.20;-0.76;-1.42;7.19;0.22
8.17;2.83;-2.40;-3.05;12.85;-2.18
14.70;2.83;0.00;5.01;16.01;1.85
3.38;1.20;3.27;3.38;16.01;-0.54
2.61;0.44;0.87;3.38;4.79;0.98
6.64;4.46;4.90;8.17;-2.50;19.49
3.38;-1.20;-0.76;9.04;3.92;1.85
2.61;2.07;11.33;3.38;-15.35;2.61
-9.47;0.44;-11.22;8.17;-21.02;10.67
3.38;9.26;-0.76;-30.49;-32.34;0.98
0.98;1.20;-0.76;-5.44;-21.89;-2.18
0.11;1.20;2.40;-6.32;-13.83;0.22
10.67;6.10;-0.76;-2.29;-10.56;1.85
-4.68;6.10;1.63;-11.98;6.32;4.25
-4.68;-23.74;3.27;9.04;12.85;0.22
-7.08;-1.20;0.87;-3.05;16.88;-0.54
-1.42;2.83;0.00;1.74;16.01;19.49
1.74;1.20;1.63;32.34;23.30;1.85
3.38;-1.96;-0.76;0.11;2.29;-5.44
3.38;5.23;-2.40;3.38;2.29;0.98
3.38;0.44;-0.76;0.11;-14.59;-0.54
2.61;4.46;0.87;25.92;-6.53;0.98
3.38;-1.20;0.00;6.64;6.32;2.61
4.14;1.20;-0.76;4.14;4.79;1.85
3.38;6.10;-0.76;-4.68;4.79;1.85
2.61;2.07;-0.76;0.11;4.79;1.85
19.49;36.70;0.87;0.11;-2.50;-0.54
3.38;-9.26;0.87;16.23;-4.14;1.85
3.38;5.23;0.00;-1.42;-2.50;1.85
25.16;3.70;0.87;-3.92;21.67;31.58
-11.11;22.98;-0.76;-3.05;18.40;0.22
2.61;2.07;3.27;-0.65;13.61;1.85
-6.32;-4.36;16.12;-3.05;3.16;-5.44
-3.92;-1.96;4.03;-2.29;-9.80;1.85
0.11;-4.36;0.00;-5.44;-33.98;-0.54
0.11;-1.20;-0.76;-2.29;-20.26;0.98
2.61;-5.23;0.87;0.11;-17.86;3.38
3.38;0.44;-0.76;-4.68;-21.02;1.85
0.98;4.46;-2.40;-3.92;-15.35;-1.42
3.38;-5.99;20.15;0.11;-2.50;22.76
0.98;-1.20;-0.76;6.64;17.64;3.38
-0.65;-1.20;13.72;5.01;17.64;1.85
2.61;-1.20;0.00;8.17;15.25;0.98
-28.10;-1.20;-0.76;6.64;7.95;-3.05
4.14;-1.96;0.00;8.17;4.79;0.98
3.38;4.46;-4.79;10.67;4.79;4.25
3.38;2.07;0.87;8.17;2.29;0.98
2.61;3.70;4.03;3.38;-0.11;1.85
3.38;0.44;1.63;0.11;-4.90;0.22
3.38;1.20;0.87;14.70;-21.02;1.85
2.61;-1.96;1.63;-2.29;-16.99;0.22
-4.68;-2.83;1.63;-6.32;-4.14;0.98
0.98;-25.37;2.40;-3.92;-2.50;0.22
3.38;-5.23;4.03;-4.68;0.76;0.98
2.61;1.20;10.45;-3.05;-0.11;0.98
-1.42;2.07;-8.82;0.11;3.16;-2.18
-1.42;1.20;-1.63;-2.29;-11.33;1.85
-1.42;4.46;-8.06;-2.29;4.79;-3.81
-0.65;-1.96;-2.40;0.11;4.79;1.85
2.61;-1.20;-27.33;1.74;7.19;-19.17
3.38;2.07;-0.76;2.61;-0.11;0.98
3.38;31.91;0.87;14.70;3.92;2.61
0.98;3.70;-0.76;10.67;4.79;4.25
3.38;4.46;-0.76;9.04;3.92;2.61
4.14;0.44;3.27;16.23;7.95;17.97
4.14;6.10;1.63;22.76;11.98;2.61
3.38;0.44;16.99;9.04;11.98;1.85
2.61;4.46;2.40;-0.65;16.01;-15.14
3.38;2.07;0.00;-10.35;10.35;0.98
4.14;-1.20;-0.76;-3.92;4.79;-15.90
3.38;-2.83;0.87;-13.50;5.55;-14.27
2.61;1.20;3.27;-6.32;2.29;-1.42
-0.65;31.91;2.40;-3.92;-2.50;0.98
-0.65;-1.96;-0.76;-2.29;-3.27;-2.18
-0.65;-1.96;3.27;-1.42;-8.17;0.98
-5.44;-1.20;0.00;18.73;-13.83;0.98
0.98;3.70;-1.63;-0.65;-18.62;-2.18
-1.42;-1.96;-0.76;5.77;-19.38;-3.05
-2.29;2.07;-0.76;-0.65;-21.02;-9.47
3.38;5.23;-0.76;1.74;-16.99;-23.20
1.74;-2.83;-5.66;-3.05;-18.62;-2.18
6.64;0.44;-15.25;-2.29;3.92;-5.44
1.74;26.24;1.63;1.74;8.82;-0.54
0.98;0.44;2.40;0.98;4.79;0.98
2.61;-1.20;12.09;-1.42;-4.14;-23.96
2.61;-2.83;-0.76;-0.65;-4.14;0.22
3.38;-1.20;7.30;-3.05;-8.17;-0.54
2.61;2.07;-0.76;-3.05;-8.17;1.85
2.61;2.83;0.00;0.98;-7.30;3.38
-0.65;-0.33;12.09;6.64;-0.11;17.97
-1.42;0.44;1.63;5.77;2.29;1.85
-3.92;3.70;4.90;9.04;-7.30;1.85
-3.92;1.20;0.87;9.80;10.35;3.38
-3.92;0.44;0.00;5.77;8.82;1.85
-27.22;4.46;4.90;-1.42;5.55;1.85
1.74;1.20;-5.66;-7.08;2.29;-2.18
2.61;0.44;-17.75;-4.68;-0.11;1.85
0.98;2.83;-0.76;-3.05;4.79;0.98
2.61;5.23;-4.79;-3.05;2.29;1.85
5.01;-0.33;-2.40;7.41;4.79;1.85
3.38;5.23;0.87;7.41;4.79;0.22
3.38;0.44;-1.63;-1.42;4.79;0.22
3.38;-15.68;2.40;-9.47;4.79;1.85
3.38;3.70;0.00;-6.32;4.79;1.85
1.74;2.07;0.00;27.55;-0.87;1.85
2.61;-1.96;25.05;-4.68;7.19;25.16
4.14;-2.83;0.87;0.11;-3.27;1.85
3.38;2.83;0.00;0.11;9.58;1.85
3.38;2.07;-0.76;3.38;4.79;3.38
4.14;-1.20;4.90;2.61;10.35;1.85
3.38;2.07;0.00;8.17;11.98;0.98
2.61;-1.20;1.63;9.04;5.55;-10.24
-7.95;-2.83;0.00;10.67;0.76;-6.21
-2.29;-5.99;4.03;1.74;-6.53;-9.47
3.38;1.20;4.03;-9.47;-9.80;0.98
-7.08;-1.20;1.63;-3.05;-6.53;2.61
3.38;4.46;0.87;2.61;-12.20;-24.72
2.61;3.70;-1.63;-0.65;-8.93;0.98
2.61;3.70;-1.63;6.64;4.79;2.61
-0.65;-1.20;-0.76;1.74;5.55;-25.59
3.38;4.46;-5.66;-0.65;10.35;-21.56
3.38;2.07;-4.79;-1.42;25.70;-3.05
5.01;-8.39;0.00;1.74;2.29;2.61
3.38;-23.74;-0.76;1.74;-2.50;1.85
0.98;-2.83;0.00;29.19;-1.74;1.85
3.38;2.07;3.27;5.01;1.52;1.85
5.77;2.07;23.41;-0.65;4.79;9.04
4.14;3.70;9.69;2.61;4.79;-2.18
2.61;0.44;8.06;0.11;2.29;9.91
3.38;2.83;-0.76;0.11;-6.53;1.85
1.74;-3.59;-0.76;-2.29;-15.35;0.98
0.98;1.20;2.40;-1.42;-15.35;1.85
-2.29;-1.96;4.03;-3.05;-17.86;-2.18
-2.29;-1.96;4.90;-7.95;-16.99;2.61
-2.29;1.20;-20.91;-2.29;-10.56;1.85
-3.92;-2.83;1.63;-1.42;-4.14;1.85
-1.42;-4.36;0.87;-1.42;24.94;-0.54
3.38;1.20;6.43;-1.42;28.10;0.22
3.38;-1.20;-0.76;1.74;26.46;1.85
-28.10;3.70;-2.40;2.61;26.46;1.85
3.38;10.89;-0.76;1.74;16.88;0.98
9.04;4.46;-0.76;-2.29;10.35;-0.54
2.61;2.07;0.00;3.38;-0.11;0.22
0.98;2.07;-0.76;0.98;-4.14;-2.18
-1.42;0.44;3.27;7.41;-21.02;0.22
3.38;-4.36;0.00;3.38;-10.56;0.22
28.31;3.70;0.00;5.77;-4.90;4.25
0.98;-5.23;2.40;-14.37;7.19;3.38
3.38;2.07;4.90;3.38;10.35;0.98
-2.29;-1.96;-0.76;5.01;4.79;1.85
-0.65;-6.86;0.87;2.61;-2.50;-2.18
21.13;-30.17;-0.76;-2.29;-3.27;-21.56
10.67;2.83;4.03;-2.29;20.04;0.98
-28.10;2.07;2.40;9.80;-7.30;1.85
-2.29;2.83;-0.76;1.74;-9.80;1.85
-0.65;-1.20;-24.18;-2.29;-10.56;0.22
-21.56;-7.62;-0.76;-3.05;-10.56;0.22
17.10;3.70;4.03;-2.29;-6.53;-2.18
3.38;0.44;-4.79;1.74;-5.77;-2.18
2.61;27.01;-0.76;-13.50;-0.11;1.85
3.38;3.70;-3.16;-4.68;-0.11;1.85
2.61;-0.33;-1.63;13.07;1.52;0.98
0.11;18.95;-0.76;-3.05;4.79;0.98
1.74;-0.33;-0.76;-2.29;3.92;0.22
0.98;1.20;-0.76;1.74;3.92;1.85
0.11;-4.36;-0.76;-0.65;4.79;-19.93
-0.65;1.20;1.63;-1.42;-3.27;5.01
-11.11;2.83;1.63;10.67;5.55;2.61
2.61;5.23;-0.76;12.20;5.55;1.85
3.38;2.07;1.63;6.64;5.55;1.85
-0.65;3.70;16.99;-1.42;9.58;-3.81
1.74;4.46;4.90;-10.35;17.64;0.98
0.11;-1.96;3.27;-9.47;4.79;6.64
-2.29;-23.74;1.63;-26.46;4.79;0.22
-1.42;-1.20;4.03;-7.08;3.92;1.85
1.74;3.70;16.99;-10.35;-0.11;0.98
0.98;4.46;-8.06;-2.29;-2.50;0.98
0.11;3.70;-2.40;0.98;-8.93;1.85
3.38;-1.96;-6.43;-2.29;-10.56;3.38
1.74;3.70;-3.16;5.77;-7.30;1.85
2.61;2.83;-19.28;9.04;-3.27;-0.54
3.38;1.20;2.40;10.67;3.92;-0.54
1.74;0.44;-0.76;3.38;10.35;0.22
1.74;2.07;0.00;7.41;12.85;1.85
0.98;-28.53;1.63;5.77;6.32;0.98
3.38;-5.99;0.87;2.61;-0.11;0.98
3.38;-1.96;0.87;9.04;-0.87;1.85
3.38;6.10;0.87;5.77;2.29;1.85
0.11;0.44;3.27;2.61;-0.11;0.98
-2.29;5.23;0.00;0.98;4.79;5.01
-0.65;-1.96;3.27;5.77;7.95;-0.54
2.61;3.70;1.63;-2.29;-0.87;-21.56
3.38;2.83;4.90;-2.29;-0.11;19.49
-26.46;-1.20;4.03;-3.05;3.16;1.85
-5.44;-2.83;1.63;-3.05;3.16;-2.18
0.11;0.44;0.00;-15.14;3.16;5.01
2.61;2.07;-0.76;-36.15;6.32;1.85
-1.42;2.07;0.00;-3.05;4.79;1.85
3.38;5.23;9.69;9.04;4.79;-0.54
1.74;3.70;4.03;5.77;5.55;-7.08
1.74;6.10;0.87;8.17;2.29;27.55
1.74;6.10;-2.40;-2.29;-6.53;-0.54
3.38;4.46;-0.76;12.20;-29.08;-0.54
-3.92;-27.77;-3.16;-6.32;-5.77;0.98
3.38;-4.36;-0.76;-0.65;-3.27;2.61
3.38;1.20;-0.76;-1.42;-3.27;0.98
2.61;3.70;-0.76;2.61;-5.77;0.98
-0.65;2.07;0.87;5.77;-16.23;1.85
1.74;3.70;-9.69;9.04;-7.30;-5.44
-3.05;-1.20;0.00;1.74;-10.56;10.67
-3.92;-1.20;-12.09;7.41;-7.30;-11.11
-2.29;3.70;6.43;8.17;-3.27;-3.05
-1.42;-4.36;0.87;-1.42;-6.53;1.85
-2.29;2.07;4.03;-3.05;-3.27;15.46
-2.29;16.55;0.00;-3.05;2.29;-0.54
0.98;5.23;0.87;-0.65;-0.87;-11.87
-1.42;1.20;0.87;-1.42;4.79;1.85
2.61;2.07;4.90;1.74;14.37;-1.42
3.38;6.86;0.87;0.11;15.25;5.88
-16.77;-1.20;0.87;6.64;18.40;5.88
3.38;2.07;-0.76;10.67;32.89;1.85
4.14;-9.26;-0.76;5.01;41.82;1.85
4.14;2.83;-3.16;0.98;38.55;-1.42
3.38;4.46;0.87;5.77;16.88;0.98
-11.98;-1.96;0.87;-20.04;-0.87;0.98
-0.65;0.44;-4.79;7.41;-33.11;0.22
2.61;2.07;-0.76;2.61;-33.11;-16.66
1.74;2.83;-0.76;-0.65;-49.22;1.85
0.98;4.46;0.00;-10.35;-54.89;0.98
3.38;22.22;0.00;-35.28;-46.83;1.85
21.13;0.44;0.87;-6.32;-35.50;2.61
-2.29;6.10;-0.76;-12.74;-17.86;0.98
-3.92;-2.83;-0.76;-14.37;-2.50;1.85
-0.65;2.07;-0.76;-6.32;8.82;-2.18
-4.68;5.23;1.63;-20.04;17.64;1.85
-0.65;-2.83;-1.63;0.11;16.88;0.98
-0.65;2.07;-0.76;-6.32;16.88;0.98
-0.65;3.70;-0.76;-0.65;20.04;-0.54
3.38;1.20;-0.76;0.11;4.79;-2.18
3.38;-1.20;-1.63;2.61;9.58;-0.54
3.38;-1.20;-0.76;9.04;6.32;1.85
2.61;5.23;0.00;10.67;5.55;-0.54
1.74;-1.96;3.27;9.80;1.52;-2.18
-20.80;6.86;-0.76;-0.65;-0.87;1.85
0.11;-2.83;6.43;11.43;15.25;1.85
1.74;-2.83;4.90;5.77;-0.11;-5.44
3.38;1.20;1.63;21.89;2.29;1.85
-0.65;-1.20;2.40;5.77;3.92;1.85
2.61;-4.36;-8.82;-0.65;4.79;1.85
0.11;-19.71;3.27;1.74;3.92;-2.18
1.74;1.20;-0.76;-0.65;4.79;1.85
-4.68;2.07;0.87;5.77;-8.93;0.98
-3.92;2.07;-0.76;-2.29;-8.17;1.85
-7.95;2.07;0.00;-10.35;-7.30;14.70
-5.44;16.55;2.40;-15.14;-1.74;1.85
-3.92;1.20;-0.76;-7.08;-3.27;1.85
-0.65;-1.96;-0.76;28.31;4.79;0.22
3.38;3.70;0.00;-3.05;2.29;-5.44
3.38;-1.96;15.35;3.38;4.79;-0.54
3.38;-9.26;0.87;-2.29;2.29;1.85
3.38;3.70;0.00;7.41;-6.53;1.85
-30.49;0.44;-0.76;5.01;1.52;2.61
-1.42;-14.92;-0.76;8.17;-3.27;0.22
0.11;2.07;0.87;3.38;2.29;-0.54
3.38;4.46;-0.76;3.38;3.16;9.04
3.38;-1.20;-0.76;0.11;3.16;0.22
3.38;3.70;-0.76;-3.05;5.55;1.85
2.61;2.83;-0.76;-22.43;10.35;1.85
7.41;2.07;3.27;-2.29;6.32;-1.42
3.38;2.07;4.90;0.98;4.79;1.85
2.61;0.44;-0.76;0.11;0.76;-0.54
-0.65;-1.20;4.03;-0.65;-16.99;-1.42
-2.29;-2.83;2.40;-7.08;0.76;-3.81
-6.32;-1.20;0.00;-2.29;1.52;1.85
1.74;0.44;-0.76;-2.29;0.76;0.98
3.38;6.10;8.06;-0.65;-8.93;1.85
0.98;5.23;-0.76;35.61;-10.56;-2.18
2.61;1.20;0.87;-3.05;-5.77;1.85
8.17;1.20;0.00;2.61;2.29;1.85
3.38;-2.83;-0.76;6.64;0.76;0.98
2.61;2.07;-0.76;-3.05;0.76;0.98
4.14;3.70;-0.76;9.80;4.79;0.98
2.61;5.23;-0.76;0.11;5.55;1.85
5.01;2.07;0.00;-10.35;4.79;2.61
3.38;2.83;1.63;-3.05;4.79;1.85
1.74;1.20;16.99;-9.47;9.58;0.22
3.38;4.46;4.03;-7.95;32.89;6.64
3.38;-1.20;0.87;-3.92;18.40;1.85
3.38;-1.96;4.03;0.11;16.88;1.85
3.38;-1.96;0.00;-0.65;8.82;25.16
-5.44;-1.96;1.63;2.61;4.79;0.98
-4.68;3.70;0.00;3.38;3.92;-24.72
-3.92;2.07;1.63;9.04;-0.87;1.85
-3.92;6.86;3.27;28.31;-10.56;1.85
-3.92;2.07;-12.85;10.67;-8.93;1.85
-7.08;27.88;-0.76;6.64;-11.33;-0.54
-3.05;1.20;6.43;9.04;-12.96;0.98
-1.42;1.20;2.40;9.04;-5.77;-9.47
-26.46;6.10;1.63;-4.68;-4.14;-0.54
3.38;-4.36;-2.40;5.01;-12.20;-7.84
-0.65;-3.59;3.27;-12.74;-16.99;-8.60
3.38;-3.59;-1.63;-19.17;-16.23;-1.42
3.38;1.20;-0.76;-17.53;-13.83;0.22
3.38;-2.83;-1.63;-13.50;-2.50;-0.54
3.38;2.07;-4.79;-4.68;-3.27;0.98
2.61;1.20;3.27;3.38;3.16;1.85
2.61;-3.59;0.87;10.67;-13.83;-1.42
0.11;1.20;-0.76;10.67;16.88;0.22
1.74;1.20;7.30;15.46;16.01;1.85
-2.29;4.46;0.00;17.10;24.94;1.85
-3.92;2.07;1.63;10.67;30.49;1.85
1.74;2.07;4.90;22.76;35.39;2.61
0.98;6.10;4.03;28.31;31.36;0.22
3.38;4.46;0.87;9.80;25.70;2.61
-0.65;6.10;0.87;-0.65;-7.30;1.85
2.61;-2.83;1.63;-2.29;-20.26;2.61
3.38;-1.20;2.40;-2.29;-25.05;1.85
-0.65;-2.83;-5.66;-2.29;-25.05;0.98
-4.68;27.01;-3.16;-1.42;-15.35;0.22
3.38;-23.74;-0.76;1.74;-6.53;-15.14
3.38;1.20;-0.76;0.11;0.76;-2.18
1.74;3.70;-0.76;0.11;7.95;-2.18
1.74;4.46;-0.76;6.64;7.95;-4.57
0.98;-2.83;-0.76;0.11;16.01;-2.18
-8.71;-1.20;3.27;-0.65;4.79;-2.18
0.98;1.20;-0.76;1.74;-3.27;-8.60
-0.65;-1.20;-0.76;-2.29;-7.30;1.85
1.74;1.20;3.27;-2.29;15.25;0.98
1.74;3.70;0.87;-3.92;-16.99;1.85
1.74;4.46;-0.76;-2.29;-10.56;1.85
-23.20;-6.86;0.00;-6.32;-21.02;0.22
-0.65;1.20;26.57;-4.68;-23.41;-14.27
-0.65;3.70;1.63;-7.08;-18.62;-3.81
-0.65;2.83;0.00;-7.08;3.16;1.85
-12.74;-1.96;-0.76;-6.32;-4.14;-1.42
-1.42;1.20;1.63;22.76;4.79;1.85
-1.42;0.44;0.00;-3.92;16.88;1.85
-0.65;1.20;-9.69;2.61;19.28;0.98
3.38;4.46;-0.76;0.98;20.91;-18.30
1.74;1.20;-3.16;6.64;17.64;4.25
3.38;-1.20;-0.76;9.04;16.01;1.85
3.38;1.20;9.69;0.11;4.79;1.85
3.38;2.07;-0.76;5.77;2.29;0.98
0.98;-1.96;-0.76;9.80;-3.27;0.98
3.38;-3.59;0.00;5.77;-4.14;-3.05
2.61;-1.20;0.87;9.04;-0.87;0.98
3.38;1.20;-0.76;-7.08;3.16;1.85
4.14;0.44;7.30;3.38;0.76;0.98
2.61;1.20;-0.76;0.11;-0.87;2.61
1.74;2.83;4.03;-0.65;-0.87;1.85
-21.56;-4.36;-0.76;-3.92;2.29;7.41
0.98;-1.20;1.63;-0.65;-6.53;-0.54
-8.71;0.44;1.63;0.11;-8.17;1.85
-3.92;1.20;4.90;-2.29;-5.77;1.85
-5.44;-1.96;4.03;-8.71;-5.77;-4.57
-6.32;-9.26;-0.76;0.11;-2.50;1.85
-3.92;-4.36;-0.76;-19.17;-0.11;-3.81
-0.65;1.20;-22.54;-1.42;3.16;-7.08
0.98;18.19;-1.63;0.11;4.79;-4.57
2.61;6.10;-0.76;-0.65;9.58;2.61
3.38;2.07;-0.76;-1.42;24.94;1.85
3.38;1.20;-1.63;-2.29;10.35;1.85
4.14;2.07;16.99;1.74;7.19;2.61
5.01;0.44;-2.40;0.11;8.82;3.38
5.01;5.23;-0.76;-1.42;7.19;1.85
3.38;-1.20;-0.76;2.61;7.19;1.85
3.38;-7.62;-0.76;1.74;8.82;2.61
0.11;0.44;-0.76;-2.29;4.79;0.98
0.98;5.23;-0.76;0.11;0.76;0.98
1.74;14.92;-0.76;-2.29;-8.17;0.22
-5.44;3.70;-0.76;2.61;-16.99;1.85
-3.92;0.44;4.03;-2.29;-16.23;-2.18
-2.29;21.34;3.27;-2.29;-15.35;2.61
-1.42;2.07;-1.63;-0.65;-16.99;-2.18
-6.32;2.83;-0.76;-1.42;-2.50;-3.81
0.98;-1.20;1.63;10.67;-8.93;-2.18
0.11;-1.96;-11.22;9.04;2.29;-0.54
-0.65;3.70;-0.76;36.37;4.79;-0.54
3.38;3.70;10.45;-0.65;9.58;-2.18
2.61;-2.83;-0.76;-7.08;4.79;-1.42
3.38;4.46;0.00;-7.08;4.79;0.98
5.01;2.07;-0.76;-7.95;8.82;-0.54
3.38;-1.96;-0.76;1.74;12.85;0.98
4.14;0.44;-0.76;6.64;11.98;0.22
3.38;0.44;-4.03;5.77;13.61;-8.60
3.38;-1.20;-0.76;0.11;18.40;-2.18
3.38;-1.20;6.43;0.11;8.82;1.85
1.74;-1.20;-0.76;9.04;11.98;1.85
2.61;6.10;0.00;11.43;3.16;-3.81
2.61;3.70;-0.76;5.77;-16.23;1.85
-1.42;2.07;-0.76;-1.42;-15.35;1.85
5.77;2.07;4.03;-11.11;-28.31;0.98
1.74;1.20;-0.76;-17.53;-22.65;0.22
-5.44;-4.36;-0.76;-20.04;-25.05;-0.54
-6.32;7.73;1.63;-20.04;-16.99;-10.24
-3.92;3.70;4.03;-7.08;-12.20;-3.05
-1.42;0.44;2.40;-3.05;-8.17;-0.54
2.61;0.44;-0.76;-2.29;-4.14;-2.18
-0.65;1.20;1.63;2.61;-6.53;-3.05
3.38;1.20;-3.16;3.38;-3.27;-0.54
3.38;-1.96;-4.79;6.64;-0.87;0.22
3.38;2.83;-0.76;7.41;2.29;1.85
3.38;4.46;-1.63;6.64;4.79;9.04
4.14;2.07;1.63;0.98;10.35;0.98
3.38;20.58;-0.76;1.74;5.55;1.85
3.38;-3.59;-0.76;0.11;7.19;1.85
3.38;1.20;6.43;1.74;4.79;1.85
3.38;3.70;0.87;1.74;7.19;1.85
3.38;1.20;1.63;5.01;8.82;2.61
2.61;6.10;-0.76;36.37;7.19;4.25
4.14;-1.96;0.87;0.98;7.19;1.85
0.98;2.07;0.87;6.64;4.79;2.61
1.74;-7.62;7.30;3.38;7.19;6.64
-2.29;-17.32;0.87;10.67;10.35;7.41
-8.71;2.83;0.00;0.11;14.37;1.85
-3.92;2.07;1.63;22.76;10.35;1.85
0.98;6.10;-0.76;-1.42;6.32;0.22
-1.42;-1.20;-0.76;-13.50;3.16;-0.54
0.98;2.07;-2.40;2.61;5.55;-0.54
0.98;2.07;-0.76;1.74;10.35;-9.47
2.61;2.07;-0.76;18.73;10.35;1.85
3.38;4.46;-0.76;44.43;10.35;-1.42
-22.43;6.10;-3.16;0.11;-15.35;0.22
2.61;-26.90;1.63;-13.50;-19.38;-2.18
4.14;18.19;0.00;17.86;-16.23;-2.18
2.61;6.10;0.87;-3.05;-21.02;0.22
3.38;-1.96;-0.76;-2.29;-21.89;-2.18
1.74;4.46;0.00;-9.47;-21.02;0.22
1.74;1.20;-4.03;-3.05;-12.96;-0.54
-2.29;-2.83;-0.76;-2.29;6.32;3.38
2.61;-2.83;1.63;-3.05;8.82;1.85
-0.65;-1.96;0.00;-1.42;4.79;-11.87
18.73;1.20;7.30;-2.29;4.79;3.38
-2.29;2.83;3.27;-0.65;7.95;1.85
-0.65;-14.05;1.63;0.11;11.98;0.22
-5.44;-8.39;1.63;0.11;13.61;1.85
-2.29;-1.96;-0.76;-1.42;8.82;14.70
2.61;0.44;2.40;-3.05;10.35;22.76
-0.65;3.70;-0.76;0.11;4.79;1.85
-4.68;-16.44;-0.76;-0.65;7.95;-1.42
3.38;6.10;-0.76;3.38;5.55;1.85
3.38;-1.96;-0.76;9.80;4.79;1.85
3.38;3.70;-0.76;1.74;-5.77;1.85
-0.65;-22.11;-2.40;-1.42;-3.27;0.22
17.10;2.07;-0.76;-1.42;-6.53;-0.54
2.61;2.07;-26.57;-4.68;-8.93;-1.42
-15.14;0.44;0.00;-2.29;-12.20;1.85
-20.80;0.44;-0.76;-4.68;-6.53;1.85
-0.65;-1.96;-26.57;-4.68;-0.11;-3.81
1.74;1.20;-0.76;0.98;1.52;1.85
3.38;2.07;0.87;-2.29;3.92;0.98
-0.65;6.10;3.27;1.74;-0.11;13.07
-1.42;5.23;4.03;8.17;-2.50;1.85
-17.53;6.10;2.40;5.77;20.04;1.85
-4.68;3.70;4.90;-0.65;-6.53;2.61
-4.68;-15.68;1.63;-10.35;-8.17;1.85
-2.29;1.20;2.40;1.74;5.55;1.85
-0.65;3.70;1.63;1.74;4.79;1.85
3.38;1.20;26.57;-2.29;8.82;18.73
-35.28;0.44;-1.63;2.61;5.55;1.85
2.61;-1.20;-2.40;1.74;16.88;1.85
-22.43;1.20;-3.16;0.11;15.25;2.61
4.14;-3.59;-0.76;1.74;16.01;10.67
-7.95;-2.83;-0.76;-1.42;8.82;-2.18
3.38;-5.99;-1.63;-1.42;3.92;-2.18
1.74;1.20;-9.69;-0.65;-21.89;1.85
-0.65;2.83;30.60;6.64;-3.27;7.41
-1.42;3.70;-0.76;3.38;-2.50;1.85
3.38;2.83;0.00;5.01;-12.96;0.22
3.38;5.23;4.90;-12.74;-8.93;-0.54
2.61;-2.83;9.69;-2.29;-8.93;1.85
-2.29;-1.20;0.00;-5.44;-15.35;1.85
-1.42;2.07;0.87;-1.42;6.32;1.85
-3.92;-1.20;0.00;-2.29;-6.53;1.85
-5.44;0.44;-0.76;-2.29;-19.38;-5.44
-4.68;3.70;-4.03;2.61;-2.50;-5.44
15.46;0.44;-0.76;10.67;4.79;0.98
-1.42;-1.96;-0.76;-0.65;7.19;-0.54
-0.65;1.20;14.48;1.74;7.95;0.98
3.38;-1.20;-16.12;-0.65;0.76;-8.60
-22.43;7.73;0.00;-7.08;-5.77;1.85
-0.65;1.20;-1.63;-16.01;-12.20;0.98
9.04;-10.89;-0.76;-17.53;-6.53;-6.21
3.38;5.23;-0.76;10.67;-4.14;0.98
0.98;-1.20;-0.76;-3.92;3.92;3.38
0.98;-5.23;-0.76;-3.92;5.55;3.38
-0.65;-1.20;-0.76;-2.29;9.58;1.85
3.38;-4.36;-4.79;8.17;8.82;2.61
2.61;-34.96;-0.76;10.67;4.79;-0.54
-1.42;2.07;-0.76;10.67;4.79;2.61
0.98;2.07;0.87;5.77;-0.11;1.85
-3.92;-1.96;0.87;6.64;-10.56;0.22
-0.65;-1.96;0.00;10.67;-4.14;-0.54
-2.29;2.83;6.43;5.77;0.76;0.98
-5.44;-1.96;6.43;-9.47;4.79;2.61
-2.29;5.23;4.90;3.38;10.35;1.85
3.38;-8.39;0.87;2.61;11.98;1.85
-2.29;2.07;-0.76;-3.05;16.01;0.98
11.43;2.07;-0.76;0.11;3.92;5.88
0.98;1.20;0.87;-2.29;-0.11;1.85
3.38;3.70;-0.76;-16.01;-10.56;0.22
3.38;4.46;-0.76;1.74;-12.96;1.85
4.14;-23.74;0.00;0.98;-9.80;8.28
3.38;-18.08;-0.76;5.77;3.16;1.85
2.61;-23.74;-0.76;8.17;10.35;0.22
2.61;-26.90;0.87;1.74;28.10;0.22
3.38;1.20;-0.76;17.86;30.49;1.85
-9.47;1.20;0.87;1.74;12.85;1.85
0.98;10.89;1.63;1.74;-2.50;1.85
-8.71;0.44;-0.76;-4.68;-21.89;-2.18
1.74;-1.20;0.87;-4.68;-33.98;-0.54
-0.65;2.07;0.87;-3.05;-42.80;-5.44
-4.68;-1.96;2.40;2.61;-40.40;-2.18
-0.65;-1.20;-18.51;-0.65;-24.28;0.98
3.38;-1.96;3.27;-2.29;-8.93;1.85
-2.29;4.46;0.87;3.38;7.95;-23.20
-29.62;2.83;2.40;-24.07;20.04;-1.42
3.38;4.46;0.00;-5.44;13.61;-2.18
-0.65;-5.23;-0.76;-0.65;16.88;0.98
-1.42;-3.59;-0.76;-0.65;8.82;-0.54
3.38;-1.20;-1.63;-2.29;12.85;-6.21
2.61;-1.96;-3.16;-3.92;4.79;-2.18
1.74;-1.20;-0.76;-1.42;8.82;-11.11
3.38;1.20;-0.76;1.74;4.79;1.85
5.01;-1.20;-1.63;-1.42;2.29;0.22
-0.65;-1.20;-0.76;9.80;0.76;1.85
4.14;4.46;-0.76;6.64;2.29;1.85
3.38;1.20;-0.76;8.17;4.79;13.07
2.61;1.20;2.40;3.38;4.79;1.85
-0.65;2.07;0.00;9.04;7.19;2.61
3.38;0.44;0.87;3.38;5.55;-0.54
-3.92;1.20;3.27;-6.32;-12.20;4.25
-1.42;2.07;3.27;-0.65;7.95;9.04
-3.92;3.70;12.09;3.38;4.79;1.85
-1.42;5.23;2.40;0.11;-0.87;-2.18
0.11;4.46;3.27;0.98;-2.50;1.85
-0.65;6.10;1.63;3.38;-4.14;2.61
3.38;14.16;1.63;5.77;3.92;5.88
0.98;1.20;-1.63;6.64;-2.50;-8.60
-1.42;2.07;-1.63;3.38;-7.30;-0.54
-1.42;1.20;-0.76;-1.42;-8.93;0.98
3.38;-1.96;-0.76;2.61;-8.93;0.98
15.46;-1.96;-0.76;-1.42;-3.27;1.85
-0.65;0.44;0.00;3.38;-3.27;-2.18
-0.65;1.20;-0.76;-3.92;-8.93;1.85
0.98;-2.83;-0.76;0.98;-12.96;-0.54
2.61;-1.20;-0.76;-2.29;-10.56;-0.54
5.01;-4.36;0.87;0.11;-26.68;0.98
3.38;-4.36;-0.76;0.11;-18.62;-0.54
1.74;-4.36;-0.76;-2.29;3.16;-6.21
1.74;21.34;1.63;-4.68;-1.74;-3.05
-0.65;-1.96;-1.63;-5.44;0.76;4.25
-21.56;1.20;-0.76;-3.05;-4.14;-0.54
-12.74;1.20;0.87;-2.29;2.29;-0.54
-3.92;2.07;3.27;-4.68;-4.14;0.98
-5.44;2.07;0.87;-3.05;4.79;1.85
-0.65;1.20;-0.76;-2.29;2.29;-0.54
-5.44;1.20;-1.63;-3.05;-4.14;-3.05
-0.65;-2.83;7.30;-2.29;4.79;-3.05
-0.65;-2.83;-0.76;2.61;4.79;1.85
2.61;-1.20;-27.33;5.01;6.32;-0.54
3.38;3.70;-2.40;1.74;10.35;1.85
3.38;-1.20;-0.76;8.17;16.01;16.33
-23.20;14.92;1.63;5.01;17.64;1.85
3.38;-1.96;-0.76;11.43;19.28;17.10
3.38;17.32;-0.76;36.37;20.91;1.85
0.98;-0.33;-5.66;12.20;17.64;-15.14
6.64;0.44;0.87;0.98;5.55;0.98
2.61;-19.71;-0.76;-3.92;-5.77;1.85
0.98;2.07;-0.76;-15.14;-16.99;-0.54
24.28;2.83;1.63;-16.77;-18.62;4.25
-2.29;0.44;0.87;-6.32;-16.23;1.85
-3.05;1.20;3.27;0.11;-13.83;1.85
-23.20;2.83;2.40;2.61;2.29;0.98
-5.44;-1.96;0.87;-4.68;-10.56;0.98
-3.92;-4.36;-0.76;-1.42;-2.50;-0.54
-4.68;-1.20;12.96;-3.92;14.37;-27.99
-4.68;-1.20;-0.76;-7.08;21.67;-10.24
-3.92;1.20;-1.63;2.61;22.43;-1.42
1.74;-0.33;-1.63;1.74;16.01;-5.44
3.38;2.07;-3.16;0.11;5.55;-1.42
4.14;3.70;-0.76;2.61;-7.30;19.49
1.74;2.07;-0.76;5.01;-12.20;1.85
4.14;2.07;-1.63;13.07;-15.35;0.22
3.38;0.44;-3.16;9.80;-15.35;1.85
4.14;2.83;-0.76;5.01;-16.23;0.98
5.77;2.07;27.44;0.11;-8.93;-1.42
3.38;4.46;-0.76;5.01;-0.87;0.98
3.38;-8.39;0.87;3.38;12.85;-0.54
-2.29;1.20;1.63;0.11;8.82;-0.54
0.98;3.70;-0.76;-1.42;8.82;-7.08
0.98;-1.20;4.03;-1.42;5.55;-0.54
0.11;3.70;4.90;0.11;2.29;1.85
-1.42;1.20;1.63;5.77;-12.96;2.61
-1.42;-0.33;4.03;2.61;-12.96;1.85
-3.05;2.07;3.27;-6.32;-21.02;-2.18
-0.65;-2.83;0.00;-2.29;-21.89;0.98
-1.42;2.07;-1.63;-3.05;-18.62;-8.60
-0.65;2.07;-0.76;-7.08;-0.11;0.98
3.38;4.46;-1.63;-5.44;8.82;23.52
3.38;33.43;-2.40;-1.42;3.16;-1.42
-20.04;3.70;-5.66;-4.68;16.88;0.98
-1.42;2.07;-1.63;-1.42;16.88;1.85
2.61;-1.20;4.03;0.11;11.98;-2.18
3.38;3.70;-0.76;-0.65;3.92;0.98
-1.42;-1.96;-1.63;0.98;-0.87;-6.21
3.38;1.20;0.87;-0.65;-6.53;0.98
1.74;0.44;14.48;0.98;-7.30;12.31
1.74;0.44;2.40;11.43;-12.96;5.01
-0.65;6.10;6.43;5.01;-7.30;0.98
-1.42;-9.26;5.66;3.38;-0.87;2.61
-1.42;0.44;4.90;1.74;10.35;-23.96
-5.44;2.07;4.90;8.17;19.28;4.25
2.61;-6.86;4.03;3.38;25.70;0.22
2.61;1.20;2.40;7.41;19.28;0.98
-4.68;1.20;2.40;3.38;16.88;-6.21
-1.42;-1.20;1.63;0.11;7.95;0.22
2.61;0.44;11.33;-1.42;4.79;-24.72
3.38;3.70;-1.63;-4.68;-2.50;0.98
18.73;3.70;-5.66;-4.68;-18.62;-1.42
-0.65;1.20;7.30;-0.65;-21.02;-3.05
3.38;5.23;-1.63;-3.05;-16.99;-0.54
0.98;0.44;23.41;-3.92;-16.99;-3.81
-10.35;2.07;-0.76;-5.44;-16.99;-0.54
1.74;-1.20;-6.43;-3.92;-12.96;-5.44
0.98;-9.26;-2.40;-3.05;-8.17;-20.69
0.98;-1.96;-3.16;-2.29;-4.90;-0.54
2.61;-2.83;0.87;-5.44;-3.27;-0.54
-3.92;2.07;-1.63;0.11;-2.50;0.98
-1.42;-1.96;0.00;-0.65;-6.53;-2.18
0.11;-1.20;-0.76;0.11;0.76;-3.05
2.61;1.20;-0.76;5.01;3.16;0.22
1.74;-22.11;1.63;-1.42;4.79;2.61
2.61;0.44;3.27;0.98;5.55;26.03
-1.42;-4.36;7.30;-1.42;7.95;1.85
-5.44;1.20;1.63;0.11;16.01;36.48
1.74;2.07;-0.76;-32.13;13.61;2.61
3.38;-1.20;26.57;0.98;13.61;1.85
3.38;-9.26;-0.76;-2.29;11.98;2.61
-2.29;4.46;-2.40;-0.65;13.61;2.61
3.38;-3.59;-0.76;-3.92;7.19;1.85
3.38;2.07;-11.22;8.17;6.32;26.79
2.61;3.70;-0.76;3.38;5.55;0.98
0.98;2.07;0.87;8.17;8.82;1.85
3.38;0.44;-0.76;11.43;5.55;27.55
0.98;1.20;0.00;9.80;5.55;1.85
3.38;0.44;-0.76;13.07;3.92;1.85
2.61;2.83;-0.76;38.01;-10.56;0.22
1.74;-2.83;-0.76;-25.59;-16.23;-2.18
-4.68;1.20;-0.76;0.11;-6.53;-3.81
0.11;-4.36;0.87;-1.42;-8.17;1.85
-3.92;-1.96;-16.88;-11.11;-5.77;-0.54
-1.42;3.70;17.75;-16.77;-2.50;-2.18
-22.43;2.07;4.03;-20.80;-0.87;-7.84
1.74;-2.83;0.00;-25.59;-8.93;-6.21
-0.65;-2.83;-6.43;-15.14;-10.56;0.22
3.38;-1.20;0.87;-13.50;-16.99;-4.57
-27.22;1.20;-1.63;-2.29;-21.89;-8.60
-1.42;-1.20;-2.40;-1.42;-25.05;-8.60
-24.83;8.49;-3.16;17.86;-10.56;-3.05
1.74;-30.17;-0.76;5.01;-6.53;-3.81
2.61;-1.20;-8.82;5.01;-5.77;-2.18
-20.04;3.70;-1.63;0.98;-5.77;-2.18
3.38;1.20;1.63;8.17;-0.11;-0.54
-0.65;6.10;0.00;-6.32;4.79;-3.05
3.38;-1.96;0.00;8.17;11.98;15.46
2.61;-1.20;-0.76;3.38;33.76;0.98
1.74;0.44;0.87;8.17;7.19;-18.30
1.74;5.23;2.40;11.43;16.88;1.85
3.38;3.70;0.00;8.17;17.64;0.98
2.61;1.20;1.63;9.04;18.40;3.38
3.38;4.46;4.03;1.74;19.28;3.38
-1.42;-2.83;1.63;2.61;18.40;2.61
0.98;2.07;1.63;3.38;15.25;1.85
5.01;-2.83;-1.63;3.38;13.61;-19.93
-4.68;0.44;3.27;1.74;16.88;-5.44
-0.65;-1.20;0.00;3.38;11.98;1.85
1.74;-23.74;1.63;-15.14;-0.87;1.85
2.61;6.10;-0.76;0.11;-15.35;0.98
3.38;1.20;-0.76;-2.29;-25.05;-0.54
2.61;2.07;-4.79;-3.92;-23.41;-0.54
7.41;1.20;-5.66;-3.05;-32.34;-5.44
5.77;-1.96;1.63;-2.29;-32.34;0.98
0.11;2.07;13.72;-5.44;-21.02;-3.05
2.61;0.44;-2.40;-16.01;-4.14;-2.18
-11.11;4.46;-0.76;-2.29;4.79;-5.44
2.61;-2.83;-2.40;-3.05;13.61;9.91
15.46;-2.83;-0.76;-1.42;16.01;5.01
2.61;1.20;2.40;-17.53;11.98;2.61
3.38;-4.36;-0.76;0.11;3.92;0.98
3.38;1.20;11.33;-3.05;4.79;5.88
-1.42;-9.26;1.63;-32.89;5.55;0.98
-8.71;4.46;-12.09;-3.05;4.79;0.98
-5.44;-2.83;3.27;-3.05;-0.11;1.85
-3.92;-1.96;2.40;-0.65;-5.77;0.98
-1.42;1.20;15.35;0.11;-8.17;-1.42
-1.42;0.44;0.00;-0.65;-9.80;7.41
0.11;-3.59;-0.76;2.61;-10.56;24.39
3.38;1.20;-0.76;1.74;-5.77;-3.81
3.38;1.20;-11.22;0.98;3.16;-18.30
4.14;-19.71;-1.63;1.74;5.55;0.22
-24.83;-0.33;-0.76;0.98;9.58;-0.54
3.38;1.20;-4.79;-7.95;15.25;0.98
2.61;-3.59;4.03;0.11;13.61;1.85
-7.08;1.20;0.00;2.61;9.58;1.85
3.38;-1.20;-0.76;-15.14;7.19;1.85
3.38;-22.98;0.00;-16.77;6.32;-0.54
0.98;6.10;1.63;-2.29;1.52;-0.54
3.38;-23.74;0.00;0.11;-3.27;1.85
-1.42;10.89;2.40;0.11;-2.50;2.61
1.74;-14.05;0.00;2.61;-0.11;1.85
-35.28;-11.65;3.27;1.74;3.92;4.25
-0.65;-5.99;0.87;0.11;-4.90;1.85
-4.68;4.46;1.63;-3.92;-7.30;1.85
-4.68;-18.08;3.27;-2.29;-8.17;-2.18
13.07;-1.96;0.00;-0.65;-8.17;2.61
3.38;2.07;3.27;-3.05;-4.14;-3.05
-0.65;-1.96;1.63;-4.68;-0.87;16.33
-0.65;1.20;-0.76;-3.05;-2.50;26.03
3.38;-1.96;0.87;-2.29;-2.50;-1.42
3.38;-1.96;-1.63;-2.29;-8.17;0.98
-7.08;-1.96;0.87;25.92;-8.93;-2.18
3.38;1.20;-0.76;10.67;-7.30;1.85
2.61;4.46;-8.82;0.11;-7.30;-8.60
3.38;0.44;-1.63;-24.07;-3.27;-3.05
-0.65;-1.20;0.00;0.11;3.92;-3.81
1.74;-5.99;-0.76;-0.65;3.92;0.98
4.14;-5.99;-1.63;0.98;5.55;-13.50
3.38;1.20;-0.76;1.74;9.58;17.10
-1.42;-1.20;-0.76;3.38;2.29;-24.72
0.11;-1.20;0.00;10.67;7.19;1.85
0.98;2.07;3.27;2.61;-5.77;1.85
-7.95;1.20;0.00;2.61;-0.87;3.38
-7.95;4.46;3.27;6.64;-0.87;2.61
-2.29;1.20;-2.40;8.17;7.19;1.85
-4.68;-2.83;1.63;2.61;7.19;0.22
0.98;5.23;-0.76;6.64;16.01;1.85
-3.92;6.10;-1.63;8.17;19.28;0.98
-27.22;-21.34;-0.76;9.04;25.70;1.85
3.38;4.46;-0.76;11.43;16.88;1.85
4.14;-0.33;-1.63;-0.65;14.37;-3.05
3.38;1.20;-0.76;-31.25;1.52;1.85
1.74;0.44;1.63;-17.53;-5.77;-2.18
3.38;2.07;-0.76;-18.40;-8.93;-2.18
2.61;-4.36;-1.63;-20.04;-20.26;0.98
3.38;4.46;-0.76;-7.08;-16.99;0.22
1.74;-1.96;0.00;-0.65;-20.26;-0.54
1.74;-1.96;0.00;6.64;-17.86;0.22
0.98;-1.20;4.03;6.64;-18.62;-11.11
-2.29;-1.96;-18.51;8.17;-16.99;16.33
0.98;-1.20;0.00;5.77;-8.93;0.22
-1.42;-3.59;-0.76;15.46;-11.33;0.22
-4.68;-1.20;0.00;-1.42;25.70;0.22
-13.50;-1.20;4.03;31.58;5.55;1.85
-5.44;-1.20;0.00;-4.68;10.35;0.98
-3.92;-5.23;4.03;-3.05;19.28;0.22
25.16;-2.83;-0.76;-10.35;22.43;1.85
-4.68;6.10;-0.76;-3.05;29.73;1.85
0.98;-5.23;-0.76;0.11;23.30;1.85
2.61;-2.83;0.00;3.38;4.79;-0.54
2.61;4.46;-1.63;-1.42;-10.56;-7.08
4.14;1.20;-0.76;-3.92;-21.02;-7.08
2.61;-2.83;-1.63;-1.42;-26.68;-0.54
16.23;4.46;0.87;-1.42;-31.47;1.85
2.61;4.46;0.00;6.64;-33.11;0.22
2.61;6.10;-0.76;0.11;-17.86;-3.05
0.98;6.10;-0.76;3.38;1.52;-0.54
4.14;-1.20;0.00;9.80;23.30;1.85
3.38;3.70;-0.76;9.04;31.36;1.85
3.38;0.44;0.00;9.04;28.86;-0.54
-15.14;-14.05;-0.76;2.61;19.28;1.85
-2.29;3.70;8.93;1.74;15.25;1.85
-4.68;-4.36;4.03;1.74;3.92;1.85
-2.29;-1.20;1.63;0.11;-8.17;-0.54
-1.42;-4.36;26.57;-0.65;-16.23;1.85
-17.53;-4.36;0.87;-8.71;-21.02;-0.54
3.38;0.44;-0.76;-9.47;-12.96;0.98
1.74;0.44;0.00;-3.05;-5.77;2.61
2.61;0.44;-4.03;-1.42;1.52;-0.54
11.43;2.07;-0.76;-5.44;4.79;-3.05
0.98;-5.99;-3.16;-3.92;5.55;-3.81
-3.92;2.07;-2.40;-3.05;16.01;-2.18
-0.65;-2.83;-4.03;-0.65;5.55;1.85
3.38;-1.20;-0.76;2.61;4.79;0.98
3.38;1.20;-0.76;0.98;2.29;-10.24
4.14;-23.74;0.00;3.38;-0.87;-2.18
-1.42;-26.90;-1.63;9.80;-2.50;-2.18
2.61;2.07;-0.76;-6.32;-19.38;1.85
0.98;-2.83;-0.76;-3.05;-7.30;1.85
-7.95;1.20;4.03;0.11;-8.93;1.85
3.38;3.70;-0.76;2.61;-10.56;0.22
-5.44;-4.36;2.40;3.38;-12.96;1.85
0.11;-4.36;0.87;-1.42;-5.77;1.85
-2.29;1.20;1.63;-1.42;2.29;-0.54
-7.08;1.20;-0.76;-3.05;12.85;1.85
-2.29;-4.36;12.96;-0.65;21.67;-0.54
3.38;2.07;-0.76;2.61;16.01;0.98
2.61;0.44;-2.40;1.74;4.79;0.98
11.43;1.20;10.45;0.11;3.92;1.85
2.61;-1.20;-0.76;-2.29;-7.30;0.22
1.74;1.20;-1.63;-2.29;-4.90;-21.56
2.61;-2.83;-2.40;-5.44;-7.30;0.22
-30.49;10.13;-1.63;-3.92;-7.30;-2.18
3.38;2.07;0.00;0.11;0.76;-5.44
5.01;3.70;-0.76;-0.65;4.79;0.98
12.20;1.20;-0.76;-1.42;15.25;0.98
4.14;4.46;0.87;0.11;4.79;1.85
3.38;-1.20;3.27;1.74;3.92;1.85
3.38;2.07;-0.76;5.01;-11.33;0.22
-3.92;-2.83;-0.76;8.17;-11.33;-8.60
-5.44;-5.23;-0.76;12.20;-16.23;0.22
-7.08;-1.20;-13.72;8.17;-12.20;-7.08
-7.08;-1.20;0.00;-1.42;-4.14;1.85
-3.92;0.44;4.03;1.74;-0.11;1.85
-3.05;1.20;12.09;3.38;3.92;0.98
0.11;-1.96;-0.76;-3.92;2.29;9.91
-1.42;-2.83;0.00;-7.95;2.29;0.98
16.23;5.23;-3.16;-15.14;0.76;0.98
-0.65;3.70;-0.76;-15.14;0.76;-13.50
3.38;-0.33;-0.76;-22.43;3.16;1.85
0.98;0.44;-2.40;-11.11;3.92;-0.54
-4.68;-2.83;-0.76;-11.98;3.92;3.38
-16.77;2.07;-1.63;-3.05;1.52;1.85
3.38;-2.83;-0.76;-0.65;-7.30;-0.54
1.74;-10.89;-2.40;10.67;-4.14;-0.54
3.38;2.07;-0.76;17.86;-2.50;-3.05
0.98;0.44;-0.76;14.70;4.79;-2.18
-1.42;-18.95;-0.76;5.77;6.32;0.98
1.74;-28.53;0.87;29.19;16.01;4.25
3.38;4.46;-0.76;-10.35;16.88;5.88
0.98;3.70;9.69;-0.65;27.33;1.85
-0.65;2.07;-0.76;-0.65;32.13;4.25
-0.65;1.20;4.03;5.01;22.43;2.61
-0.65;5.23;4.03;5.77;7.19;3.38
-5.44;2.83;0.00;-0.65;-7.30;0.98
0.98;6.10;-0.76;1.74;-18.62;1.85
-4.68;5.23;0.00;2.61;-47.59;0.98
-1.42;2.07;-1.63;-28.10;-46.83;-3.81
-1.42;1.20;-2.40;-2.29;-46.06;-7.84
3.38;-1.20;-27.33;-7.95;-34.74;-8.60
3.38;3.70;-2.40;-7.08;-21.02;-23.20
3.38;3.70;9.69;-9.47;-8.93;1.85
3.38;-24.50;-0.76;-0.65;-4.14;19.49
2.61;-1.20;-1.63;-1.42;4.79;0.22
3.38;-2.83;-2.40;0.11;12.85;1.85
3.38;-4.36;0.87;26.79;18.40;-0.54
0.98;24.61;1.63;1.74;28.10;1.85
2.61;1.20;2.40;9.04;25.70;1.85
3.38;2.07;4.03;3.38;18.40;1.85
-0.65;-25.37;1.63;1.74;28.86;0.22
-1.42;6.10;0.87;-13.50;32.13;2.61
0.11;-2.83;3.27;8.17;27.33;2.61
-2.29;1.20;4.90;5.77;16.88;0.22
-7.95;-1.96;1.63;-1.42;6.32;-2.18
-6.32;1.20;1.63;0.11;-3.27;-2.18
-0.65;-1.20;0.87;-2.29;-15.35;-0.54
-2.29;1.20;4.90;-2.29;-22.65;2.61
13.07;-1.20;3.27;-2.29;-30.71;0.98
2.61;3.70;-0.76;-9.47;-18.62;-2.18
3.38;-1.20;-0.76;-3.05;-26.68;-6.21
3.38;4.46;-8.82;-1.42;-21.02;16.33
0.11;4.46;-0.76;0.11;-18.62;0.22
3.38;5.23;-12.09;2.61;3.16;0.98
1.74;1.20;-3.16;-1.42;3.92;1.85
2.61;0.44;-0.76;0.98;5.55;-3.81
-0.65;-1.96;-0.76;1.74;15.25;0.22
1.74;2.07;1.63;3.38;19.28;27.55
3.38;-22.11;0.87;-23.20;19.28;-3.81
2.61;1.20;-0.76;5.01;21.67;1.85
3.38;3.70;1.63;-0.65;9.58;1.85
-2.29;-3.59;4.03;2.61;4.79;0.22
-4.68;2.07;0.00;-1.42;-7.30;-2.18
-0.65;-0.33;2.40;-16.77;-12.96;0.22
-1.42;-1.20;3.27;-3.92;-21.02;0.98
-5.44;2.07;0.00;-2.29;-7.30;2.61
-1.42;-1.96;-0.76;-3.92;-18.62;0.98
-1.42;-29.40;0.00;-14.37;-7.30;0.22
1.74;-1.96;0.87;-2.29;19.28;1.85
1.74;-1.20;-4.79;-0.65;5.55;0.22
-26.46;-1.20;-0.76;-2.29;13.61;1.85
3.38;2.07;-0.76;-1.42;8.82;15.46
2.61;-17.32;-1.63;2.61;5.55;0.22
3.38;2.07;-1.63;0.11;-15.35;0.98
3.38;-22.98;-0.76;12.20;10.35;1.85
5.77;0.44;-0.76;-3.92;6.32;0.98
2.61;2.07;-0.76;-2.29;22.43;0.98
0.98;2.07;-0.76;2.61;3.92;3.38
2.61;6.10;0.00;1.74;25.70;-1.42
0.98;1.20;2.40;3.38;1.52;3.38
-2.29;4.46;3.27;3.38;-2.50;0.98
-13.50;2.83;4.03;44.43;-3.27;2.61
-2.29;-1.20;7.30;0.98;18.40;1.85
-3.92;-12.41;5.66;-3.05;-0.87;1.85
-3.92;-0.33;0.87;-2.29;-3.27;3.38
-1.42;-2.83;0.87;-1.42;-4.14;1.85
-1.42;-5.99;3.27;-1.42;-2.50;1.85
-0.65;0.44;-0.76;0.11;-7.30;-1.42
-5.44;-1.96;-0.76;21.13;3.92;0.98
-1.42;3.70;-2.40;-3.05;7.95;-3.81
0.98;0.44;-5.66;5.01;5.55;1.85
3.38;2.07;-0.76;10.67;7.19;-1.42
3.38;-1.20;-0.76;6.64;7.19;-21.56
1.74;2.07;0.00;10.67;13.61;20.36
1.74;-2.83;-0.76;9.04;7.95;-2.18
1.74;-1.96;-0.76;-1.42;5.55;-3.05
3.38;2.07;-10.45;-11.11;5.55;-2.18
-0.65;-5.99;-1.63;-12.74;-5.77;-3.05
3.38;5.23;-1.63;15.46;-16.23;0.98
1.74;-1.96;-0.76;22.76;-17.86;-2.18
-1.42;-1.96;16.12;1.74;-17.86;14.70
1.74;-1.96;0.87;-0.65;-18.62;0.98
-3.92;-1.20;0.87;-4.68;-20.26;-0.54
-0.65;-1.96;1.63;-12.74;-21.02;2.61
-3.92;-1.96;3.27;-7.95;-18.62;1.85
-1.42;-0.33;4.90;-11.11;-5.77;1.85
-3.92;-1.96;-12.85;-3.05;13.61;27.55
3.38;-1.96;-0.76;-3.05;20.04;1.85
2.61;-1.96;-15.25;-3.05;17.64;-26.35
0.98;4.46;0.00;5.77;7.19;1.85
0.11;1.20;-4.79;10.67;7.19;0.22
-2.29;-1.20;9.69;10.67;5.55;1.85
4.14;-1.96;-17.75;9.80;4.79;-2.18
16.23;3.70;21.02;6.64;4.79;0.22
1.74;4.46;-5.66;8.17;3.92;6.64
1.74;-2.83;-0.76;8.17;-25.92;-3.05
-23.20;-7.62;0.00;1.74;-4.14;-2.18
1.74;-3.59;-0.76;-2.29;0.76;-3.05
2.61;-1.96;3.27;5.01;-5.77;-31.25
12.20;2.07;1.63;-2.29;-21.02;-2.18
3.38;-1.96;0.00;-1.42;-15.35;-3.05
0.11;-1.20;1.63;-4.68;-16.99;-2.18
-5.44;-4.36;-16.88;-2.29;-8.17;-2.18
-7.95;-1.20;0.00;-2.29;-10.56;-2.18
-1.42;6.10;0.00;-1.42;4.79;3.38
-3.92;-1.20;12.96;0.11;7.95;-2.18
-2.29;1.20;3.27;-2.29;-1.74;1.85
-0.65;6.10;0.00;-28.86;4.79;0.98
-1.42;2.07;-0.76;11.43;9.58;1.85
-0.65;1.20;1.63;6.64;12.85;2.61
3.38;1.20;-3.16;5.77;9.58;27.55
8.17;4.46;-0.76;22.76;11.98;5.88
24.28;3.70;-0.76;10.67;18.40;-23.96
2.61;4.46;-0.76;5.77;13.61;2.61
3.38;6.10;1.63;5.77;7.19;1.85
3.38;2.07;0.00;4.14;4.79;1.85
0.98;-5.99;0.00;-2.29;1.52;-0.54
26.79;1.20;0.00;-0.65;-6.53;1.85
2.61;32.67;-0.76;-0.65;-13.83;1.85
0.11;0.44;3.27;-2.29;-21.02;-0.54
-3.92;1.20;0.87;-4.68;-16.99;-0.54
-2.29;-20.47;0.00;-4.68;-21.02;-3.05
-1.42;3.70;0.87;-7.08;-18.62;-35.28
-3.92;1.20;-0.76;-7.08;-12.96;-11.11
1.74;-1.20;-8.82;-1.42;-2.50;1.85
-1.42;-1.96;1.63;-3.92;3.16;13.07
-0.65;1.20;0.00;-1.42;3.92;0.98
-0.65;-1.96;-1.63;22.76;5.55;0.22
0.98;-2.83;-0.76;-3.92;25.70;-5.44
2.61;5.23;-4.79;-14.37;9.58;-0.54
-0.65;-1.20;-1.63;-7.95;16.88;-2.18
0.98;1.20;-4.03;-9.47;8.82;-2.18
3.38;2.07;14.48;-10.35;4.79;0.22
1.74;-1.20;-0.76;-2.29;2.29;-2.18
3.38;0.44;-0.76;-3.05;-7.30;-2.18
3.38;6.10;-1.63;3.38;-15.35;0.22
3.38;-1.20;-0.76;1.74;-13.83;1.85
0.98;1.20;-0.76;22.76;-5.77;0.98
0.98;2.07;2.40;2.61;-0.87;1.85
-0.65;-1.96;4.03;14.70;4.79;1.85
1.74;10.89;-0.76;3.38;10.35;-2.18
2.61;1.20;2.40;1.74;8.82;0.98
-0.65;-2.83;12.09;5.77;7.19;0.98
-1.42;-1.20;4.03;0.11;0.76;1.85
-3.92;1.20;1.63;0.11;-3.27;0.98
-0.65;-1.96;12.96;5.01;1.52;20.36
-5.44;-1.96;1.63;0.11;1.52;1.85
1.74;0.44;-14.48;-6.32;0.76;1.85
-3.92;-1.20;-0.76;-3.05;-4.14;0.98
-2.29;2.07;-0.76;-1.42;-6.53;-0.54
2.61;4.46;-1.63;-2.29;-7.30;-2.18
1.74;2.07;-0.76;-2.29;-21.02;0.22
4.14;6.10;-1.63;-2.29;-17.86;0.98
3.38;3.70;-3.16;-6.32;-8.93;-15.14
-0.65;0.44;-0.76;-1.42;-12.20;0.98
3.38;-1.20;-0.76;-2.29;-33.98;0.22
2.61;0.44;-0.76;5.77;17.64;-3.81
4.14;0.44;1.63;36.37;2.29;-2.18
3.38;0.44;-0.76;-1.42;16.01;0.22
0.11;0.44;0.00;-0.65;6.32;0.98
-1.42;0.44;29.08;1.74;4.79;9.91
1.74;14.16;4.03;-23.20;-2.50;2.61
-0.65;2.83;0.00;0.98;4.79;0.98
-3.92;-1.96;3.27;9.04;3.92;3.38
-0.65;-1.20;-20.91;9.04;2.29;-0.54
-1.42;6.10;4.03;-7.08;7.19;1.85
11.43;-4.36;3.27;2.61;13.61;1.85
3.38;0.44;1.63;10.67;16.88;1.85
-0.65;-1.96;-0.76;8.17;12.85;1.85
0.98;2.07;1.63;-3.92;10.35;1.85
2.61;2.07;-0.76;-2.29;4.79;1.85
5.77;5.23;-0.76;-11.11;0.76;0.98
3.38;0.44;-0.76;-13.50;-4.14;3.38
3.38;0.44;-0.76;-7.08;-16.23;1.85
2.61;3.70;-18.51;8.17;-16.99;-19.93
2.61;1.20;-0.76;10.67;-8.93;-0.54
-0.65;-1.96;-0.76;10.67;-7.30;-8.60
3.38;6.10;-2.40;-4.68;6.32;-2.18
4.14;1.20;-0.76;-3.92;2.29;0.22
3.38;-1.96;-0.76;-7.95;-2.50;0.98
0.98;-0.33;-0.76;-1.42;-7.30;0.22
1.74;0.44;2.40;-6.32;-4.14;0.22
2.61;6.10;0.00;-1.42;-2.50;0.22
-4.68;1.20;0.87;-9.47;0.76;0.22
-0.65;-1.20;1.63;-2.29;-4.14;-27.99
-2.29;-1.20;-0.76;0.98;-5.77;-9.47
-7.08;-1.20;-0.76;0.98;3.92;-18.30
1.74;-3.59;-0.76;11.43;11.98;1.85
-1.42;-4.36;-2.40;1.74;13.61;-5.44
2.61;5.23;-0.76;1.74;12.85;2.61
2.61;3.70;-0.76;-0.65;8.82;1.85
2.61;2.83;-1.63;-1.42;3.92;-2.18
3.38;4.46;1.63;2.61;-2.50;0.98
2.61;2.83;-0.76;2.61;-9.80;0.22
3.38;16.55;0.87;-0.65;-8.93;1.85
3.38;-1.96;0.00;2.61;-8.17;0.98
0.11;1.20;0.00;0.11;-15.35;0.98
1.74;0.44;3.27;0.11;-21.89;-0.54
0.98;0.44;-0.76;-2.29;-6.53;-23.96
3.38;0.44;0.87;3.38;0.76;-2.18
-3.92;1.20;-0.76;0.11;3.16;1.85
-4.68;0.44;-0.76;-2.29;3.16;2.61
-1.42;14.16;0.00;16.23;4.79;0.22
-1.42;-1.20;3.27;-1.42;1.52;1.85
-7.08;3.70;4.90;0.11;4.79;1.85
-7.08;2.07;1.63;9.04;4.79;22.00
-1.42;-1.20;4.03;5.01;5.55;-1.42
-0.65;3.70;-0.76;5.77;15.25;-5.44
-1.42;0.44;0.00;5.77;22.43;0.98
-1.42;4.46;-2.40;5.77;24.94;26.79
3.38;3.70;-0.76;3.38;40.18;0.98
3.38;2.07;-1.63;5.01;18.40;1.85
3.38;-2.83;-0.76;6.64;13.61;1.85
0.98;0.44;0.00;-0.65;0.76;1.85
2.61;1.20;-0.76;2.61;-20.26;1.85
3.38;2.83;-4.03;-1.42;-25.05;1.85
1.74;-1.20;0.87;3.38;-35.50;1.85
3.38;-1.96;30.60;0.11;-38.01;0.22
-0.65;5.23;-0.76;-0.65;-29.08;-3.05
20.26;-2.83;-2.40;-14.37;-20.26;1.85
3.38;-5.23;0.87;22.76;-2.50;1.85
0.11;4.46;-0.76;-1.42;6.32;1.85
15.46;0.44;4.90;-4.68;15.25;0.22
5.77;1.20;4.90;-5.44;19.28;-0.54
-3.05;-1.20;2.40;-4.68;16.01;1.85
-3.92;1.20;3.27;-3.05;7.95;1.85
-3.92;2.07;3.27;-4.68;-6.53;0.22
-1.42;2.83;-0.76;0.98;13.61;1.85
-2.29;2.07;12.09;3.38;-0.11;-1.42
4.14;3.70;-0.76;0.11;-4.14;-23.20
4.14;6.10;-0.76;2.61;2.29;0.98
1.74;-1.20;-0.76;-2.29;4.79;0.98
5.01;-9.26;-3.16;3.38;3.92;-5.44
3.38;1.20;-0.76;1.74;6.32;-23.20
3.38;1.20;-2.40;3.38;6.32;0.98
2.61;-0.33;-0.76;0.11;3.16;-0.54
2.61;1.20;-0.76;5.77;0.76;-0.54
0.98;2.07;3.27;9.80;1.52;1.85
1.74;6.10;1.63;-1.42;-5.77;0.98
1.74;0.44;-0.76;5.77;-5.77;1.85
2.61;6.86;-0.76;-32.13;-8.93;1.85
0.11;2.07;0.87;-0.65;-3.27;-18.30
-1.42;0.44;-0.76;0.11;3.92;1.85
-8.71;-1.96;1.63;-0.65;7.19;2.61
8.17;18.19;1.63;25.16;30.49;1.85
-4.68;1.20;4.90;-1.42;11.98;2.61
-4.68;-1.20;3.27;9.80;16.88;1.85
-0.65;-2.83;0.87;6.64;4.79;-8.60
-2.29;-1.96;-0.76;8.17;30.49;1.85
0.98;2.07;-1.63;6.64;20.04;1.85
3.38;3.70;-0.76;-15.14;1.52;0.98
3.38;7.73;-0.76;-4.68;-20.26;0.98
5.01;18.19;-1.63;-16.01;-36.37;-6.21
0.98;-1.20;-3.16;-15.14;-46.83;-9.47
1.74;3.70;-0.76;-15.14;-51.62;-6.21
-7.08;-1.20;-0.76;-15.14;-46.83;-27.99
3.38;-1.20;0.00;13.07;-36.37;-2.18
0.11;1.20;-0.76;0.11;-17.86;-0.54
3.38;2.07;-0.76;3.38;2.29;-0.54
3.38;0.44;-1.63;37.24;25.70;1.85
2.61;-1.20;25.81;15.46;25.70;1.85
-3.92;1.20;0.87;18.73;23.30;-6.21
-5.44;-5.23;-17.75;13.07;23.30;-5.44
-0.65;3.70;4.03;5.01;17.64;-24.72
-21.56;19.82;1.63;-7.08;16.01;4.25
-4.68;-1.20;3.27;-19.17;10.35;2.61
0.11;-1.96;0.00;-14.37;12.85;1.85
2.61;24.61;-0.76;-14.37;5.55;2.61
5.01;0.44;0.00;-7.95;6.32;1.85
2.61;-22.11;-2.40;-7.08;3.16;1.85
0.11;-1.20;-2.40;-2.29;-7.30;-8.60
3.38;-2.83;-0.76;0.11;-4.14;-0.54
1.74;1.20;20.15;9.04;-8.93;-3.81
2.61;0.44;-6.43;9.80;-12.96;-2.18
3.38;-0.33;-0.76;-16.77;-16.99;-2.18
5.77;16.55;-0.76;-5.44;-10.56;1.85
3.38;6.10;-0.76;27.55;-0.87;1.85
3.38;1.20;2.40;5.77;6.32;0.98
29.95;0.44;2.40;23.52;16.88;0.98
3.38;-6.86;1.63;10.67;28.10;1.85
1.74;-1.20;2.40;8.17;6.32;10.67
-0.65;3.70;-0.76;1.74;0.76;-0.54
-5.44;-2.83;8.06;0.11;-6.53;0.22
-4.68;0.44;0.00;0.11;-18.62;0.98
-7.08;-3.59;1.63;1.74;-20.26;0.22
9.04;4.46;12.09;-2.29;-21.02;-6.21
3.38;-1.20;0.00;-2.29;-18.62;3.38
0.11;2.83;1.63;-15.14;4.79;1.85
0.11;2.07;-0.76;-6.32;10.35;1.85
0.11;-1.20;0.00;-4.68;12.85;3.38
2.61;-1.20;-1.63;-9.47;13.61;0.98
3.38;0.44;-26.57;-3.05;16.88;-2.18
3.38;-2.83;-3.16;-10.35;7.19;3.38
3.38;-1.20;-1.63;0.11;2.29;-3.05
-7.08;4.46;-2.40;0.11;-7.30;1.85
2.61;-26.90;-0.76;0.11;-7.30;1.85
0.11;1.20;-0.76;-4.68;-8.93;-3.81
3.38;2.07;0.00;2.61;-4.14;-3.81
3.38;-2.83;-0.76;2.61;4.79;-4.57
2.61;2.07;1.63;10.67;0.76;-3.81
3.38;0.44;-0.76;5.77;7.95;-0.54
3.38;3.70;3.27;2.61;13.61;0.98
3.38;4.46;1.63;2.61;7.19;-19.17
0.98;-1.20;12.09;2.61;4.79;1.85
-4.68;3.70;7.30;0.11;2.29;1.85
-0.65;-1.96;8.06;-1.42;-4.14;1.85
-5.44;1.20;21.02;0.11;-6.53;0.22
1.74;0.44;-0.76;-7.08;-8.17;13.94
-0.65;-1.20;-0.76;-25.59;-12.20;0.98
1.74;28.64;-0.76;-32.13;-10.56;0.22
-0.65;2.83;-4.79;-2.29;-7.30;1.85
3.38;-2.83;-4.79;-2.29;-4.14;1.85
3.38;1.20;-2.40;-1.42;3.92;16.33
2.61;4.46;-1.63;-1.42;9.58;-5.44
5.01;-1.20;0.00;3.38;7.95;-2.18
2.61;2.07;-0.76;-1.42;9.58;1.85
2.61;0.44;-0.76;-0.65;4.79;-3.05
-3.92;-1.20;-5.66;-2.29;4.79;-15.90
1.74;1.20;4.03;2.61;0.76;-23.96
0.11;1.20;0.87;5.01;-3.27;3.38
1.74;2.07;3.27;-2.29;3.92;1.85
2.61;-1.96;1.63;1.74;3.16;1.85
1.74;2.07;2.40;5.01;2.29;1.85
-2.29;-2.83;2.40;3.38;4.79;0.22
-7.08;-1.20;-0.76;2.61;8.82;0.98
0.98;31.04;1.63;-25.59;7.19;1.85
0.98;-1.20;-1.63;-2.29;4.79;17.97
1.74;-1.96;1.63;10.67;-3.27;1.85
0.98;1.20;-0.76;-1.42;2.29;1.85
3.38;4.46;0.00;-11.11;0.76;0.22
1.74;-1.96;0.00;1.74;-7.30;-0.54
4.14;6.10;-0.76;1.74;-29.08;-2.18
3.38;3.70;-0.76;-2.29;-8.93;-1.42
-3.92;-2.83;-1.63;-3.05;-7.30;0.22
3.38;-1.20;-3.16;-3.05;-12.96;-1.42
3.38;-1.96;-2.40;-29.62;-6.53;-3.81
-3.92;-2.83;-0.76;-1.42;3.16;-2.18
0.11;-1.20;-0.76;0.11;3.16;-6.21
-3.92;2.83;0.00;2.61;3.16;0.98
2.61;5.23;-2.40;5.77;5.55;1.85
-1.42;-0.33;0.00;18.73;16.01;0.22
-2.29;-1.20;-0.76;13.07;17.64;-0.54
-4.68;-30.17;1.63;22.76;15.25;-0.54
-7.08;-1.20;3.27;0.11;2.29;1.85
-2.29;-2.83;0.00;-9.47;-12.96;26.79
-0.65;6.10;1.63;-15.14;-18.62;0.22
-4.68;-1.20;1.63;-16.77;-21.02;1.85
0.98;-4.36;2.40;-13.50;-25.05;0.98
1.74;27.01;-0.76;-10.35;-22.65;-15.14
1.74;5.23;-0.76;-6.32;-12.96;1.85
31.58;2.07;-2.40;-3.92;0.76;1.85
3.38;-1.20;-4.79;-2.29;4.79;-0.54
3.38;1.20;-15.25;5.01;11.98;0.22
-7.95;-1.20;-2.40;27.55;30.49;-0.54
3.38;-1.96;-4.79;8.17;23.30;0.98
-0.65;-1.20;1.63;8.17;20.04;2.61
4.14;2.07;6.43;14.70;22.43;1.85
1.74;-1.20;-0.76;18.73;31.36;3.38
-2.29;3.70;0.87;11.43;24.94;1.85
0.98;1.20;0.87;0.11;13.61;1.85
-5.44;20.58;1.63;-0.65;3.16;1.85
-8.71;2.07;5.66;-10.35;-12.96;0.98
-1.42;-1.96;-0.76;-11.11;-21.89;-0.54
-7.08;2.07;0.87;-10.35;-35.50;1.85
-3.92;3.70;4.03;-11.11;-29.95;-3.05
-0.65;3.70;4.03;-7.08;-42.80;-2.18
0.98;-5.99;4.03;-11.11;-19.38;0.98
0.98;4.46;25.05;-6.32;-5.77;-7.84
0.11;1.20;1.63;-4.68;4.79;-0.54
-1.42;1.20;-0.76;5.77;12.85;-0.54
2.61;23.85;-3.16;-3.05;15.25;-0.54
0.98;29.40;-1.63;-20.04;7.19;-0.54
3.38;-5.23;-4.79;2.61;3.92;-2.18
-3.92;1.20;-0.76;0.98;-3.27;1.85
3.38;3.70;-1.63;5.77;0.76;1.85
2.61;1.20;-1.63;8.17;4.79;1.85
3.38;6.10;0.87;6.64;6.32;0.98
-4.68;6.10;-3.16;9.04;10.35;5.88
3.38;2.07;-3.16;3.38;17.64;-5.44
2.61;1.20;1.63;5.77;17.64;3.38
5.01;4.46;2.40;0.11;15.25;1.85
0.98;3.70;1.63;6.64;13.61;-15.90
0.98;16.55;7.30;-6.32;3.16;1.85
-3.92;2.07;4.90;9.04;-0.11;-3.05
-2.29;2.07;0.87;-7.08;-8.17;-3.81
-5.44;2.83;1.63;13.83;-3.27;-0.54
1.74;2.07;3.27;-4.68;-33.98;0.22
-3.92;1.20;0.00;15.46;-12.96;-1.42
-0.65;5.23;-0.76;-7.08;-10.56;-2.18
0.98;3.70;-3.16;-6.32;2.29;-6.21
-14.37;3.70;-1.63;-4.68;7.19;1.85
2.61;5.23;-0.76;-1.42;16.01;3.38
3.38;3.70;-2.40;0.11;17.64;4.25
0.98;4.46;-0.76;5.77;11.98;1.85
1.74;0.44;-0.76;0.11;17.64;-0.54
1.74;2.83;-1.63;2.61;15.25;-0.54
2.61;1.20;-0.76;0.98;4.79;1.85
4.14;2.83;0.87;2.61;-5.77;0.22
1.74;-25.37;-0.76;5.01;-18.62;-2.18
0.98;0.44;-1.63;-0.65;-30.71;-1.42
0.11;-1.20;0.00;-13.50;-35.50;-1.42
0.98;-4.36;-0.76;-6.32;-38.77;-0.54
-2.29;-2.83;-0.76;-13.50;-41.16;-3.05
-0.65;1.20;1.63;-15.14;-32.34;-0.54
-5.44;-5.23;-0.76;-11.11;-25.92;1.85
-3.92;-1.96;1.63;-4.68;-19.38;-3.81
-5.44;-1.20;3.27;-4.68;-0.11;0.22
-4.68;1.20;-0.76;2.61;11.98;0.22
1.74;0.44;-0.76;2.61;20.04;-19.93
2.61;-1.96;3.27;5.01;30.49;-1.42
3.38;-1.20;-0.76;36.37;30.49;1.85
3.38;24.61;-1.63;6.64;25.70;1.85
3.38;-1.20;-2.40;3.38;20.04;3.38
3.38;2.07;0.87;-0.65;17.64;3.38
4.14;-2.83;8.06;0.11;12.85;-9.47
-18.40;-2.83;-0.76;5.77;6.32;1.85
3.38;6.10;-0.76;-1.42;6.32;2.61
3.38;2.07;-0.76;2.61;4.79;0.98
1.74;2.07;-0.76;3.38;4.79;1.85
25.16;6.10;0.87;6.64;8.82;2.61
0.98;31.04;0.87;1.74;7.95;1.85
3.38;1.20;0.00;1.74;3.92;1.85
-0.65;1.20;4.90;-0.65;-2.50;-2.18
-3.92;-2.83;7.30;2.61;-11.33;0.98
-0.65;3.70;8.06;-1.42;-20.26;-0.54
0.98;2.07;4.90;7.41;-25.05;-0.54
-1.42;-1.96;-13.72;5.01;-22.65;1.85
-1.42;1.20;-6.43;3.38;-21.02;2.61
0.98;2.07;-0.76;-2.29;-29.95;0.98
-2.29;0.44;-2.40;-7.95;13.61;0.98
3.38;-1.20;-0.76;-4.68;24.94;3.38
0.11;30.27;-2.40;-27.22;7.19;0.98
1.74;3.70;-3.16;-7.08;-2.50;-0.54
-0.65;4.46;-3.16;-5.44;-5.77;0.22
3.38;8.49;-0.76;-2.29;-4.14;1.85
5.01;0.44;12.09;-3.05;-9.80;-15.14
2.61;2.07;-21.78;-0.65;-18.62;2.61
0.11;-4.36;-1.63;0.11;10.35;1.85
0.98;-1.20;-0.76;0.11;-0.11;-3.05
3.38;-1.96;-0.76;36.37;7.95;0.22
2.61;0.44;-0.76;11.43;13.61;1.85
-2.29;-1.20;1.63;10.67;7.19;1.85
-0.65;3.70;4.90;1.74;4.79;1.85
2.61;1.20;10.45;2.61;-0.87;-13.50
-3.92;-4.36;7.30;-9.47;-0.11;-11.87
-6.32;1.20;7.30;-13.50;-7.30;-0.54
-5.44;-5.23;3.27;-15.14;-13.83;3.38
2.61;5.23;0.00;-7.08;-8.93;-0.54
3.38;1.20;0.00;-3.05;-4.14;1.85
0.98;2.83;-2.40;-3.92;7.19;1.85
2.61;-1.20;-0.76;10.67;16.01;1.85
2.61;-1.96;-1.63;15.46;12.85;-2.18
28.31;0.44;-0.76;13.07;16.01;0.98
4.14;2.07;-5.66;6.64;20.04;-2.18
2.61;1.20;-0.76;0.11;15.25;0.98
2.61;-1.20;0.87;-9.47;4.79;-15.14
26.79;1.20;-17.75;-8.71;-9.80;1.85
3.38;5.23;0.00;-9.47;-12.20;1.85
-0.65;-2.83;-0.76;-7.95;-12.20;2.61
3.38;-1.20;-0.76;0.11;-16.99;1.85
-14.37;2.83;4.90;-1.42;-25.92;0.98
3.38;3.70;-0.76;-15.14;-8.93;0.98
-2.29;1.20;0.00;1.74;-4.14;1.85
-7.08;1.20;1.63;5.77;9.58;0.98
-7.95;-5.99;2.40;2.61;21.67;1.85
-7.08;-5.23;4.03;6.64;19.28;-19.17
-4.68;0.44;0.00;5.01;20.04;-0.54
-0.65;-4.36;2.40;5.77;19.28;1.85
1.74;2.83;-0.76;7.41;14.37;1.85
2.61;4.46;-2.40;-1.42;3.92;1.85
3.38;-1.20;-0.76;-7.08;-3.27;-0.54
4.14;-1.96;-3.16;-2.29;-8.93;1.85
-3.92;31.91;-1.63;-3.05;-12.96;-1.42
1.74;27.88;-0.76;-0.65;-11.33;-2.18
3.38;-14.92;-0.76;-1.42;-9.80;-0.54
1.74;-1.20;-0.76;-2.29;-21.02;0.98
-1.42;-1.20;-0.76;-11.11;-18.62;-8.60
-2.29;2.07;-0.76;-2.29;-19.38;-3.05
3.38;-1.96;-1.63;-0.65;-12.96;-3.05
-4.68;3.70;1.63;-2.29;-19.38;-0.54
0.11;4.46;-0.76;-9.47;0.76;0.22
-0.65;-5.99;-0.76;0.11;3.16;1.85
-2.29;-2.83;-0.76;-0.65;2.29;14.70
2.61;1.20;0.87;2.61;4.79;1.85
21.89;-6.86;0.87;-0.65;8.82;0.98
-14.37;-5.23;3.27;2.61;7.19;2.61
1.74;4.46;4.03;2.61;5.55;3.38
0.11;2.07;-0.76;18.73;4.79;1.85
-3.92;0.44;-20.91;-2.29;0.76;1.85
-1.42;1.20;-0.76;-6.32;-0.11;-9.47
3.38;2.07;0.00;-4.68;-6.53;-3.05
3.38;0.44;-2.40;-3.05;-0.87;1.85
3.38;-2.83;-0.76;-2.29;4.79;-5.44
3.38;27.88;-0.76;29.19;14.37;0.22
26.79;-4.36;1.63;3.38;16.88;1.85
0.98;-1.20;-20.91;7.41;13.61;1.85
3.38;1.20;0.00;9.80;17.64;1.85
3.38;-1.96;-2.40;14.70;-2.50;0.22
3.38;-4.36;-0.76;3.38;-4.14;-2.18
2.61;-4.36;-1.63;-2.29;-8.93;-1.42
-0.65;2.07;-0.76;1.74;-16.23;-2.18
-0.65;-8.39;0.87;-4.68;-10.56;-2.18
-1.42;2.07;2.40;-7.08;-10.56;-2.18
2.61;0.44;0.00;-3.05;-13.83;1.85
-0.65;6.10;4.03;-13.50;-8.93;10.67
-4.68;3.70;0.87;-6.32;-11.33;4.25
-0.65;-14.05;0.87;-3.05;-13.83;0.98
-7.08;-1.20;1.63;-3.05;-16.23;1.85
2.61;-1.20;1.63;5.01;-4.14;1.85
1.74;-4.36;-0.76;3.38;4.79;0.22
1.74;5.23;-0.76;15.46;21.67;1.85
2.61;3.70;-0.76;8.17;35.39;1.85
3.38;0.44;-0.76;0.11;30.49;1.85
2.61;14.16;-0.76;-5.44;18.40;5.88
1.74;0.44;4.03;-6.32;11.22;13.94
3.38;3.70;-26.57;-2.29;3.92;1.85
2.61;1.20;0.87;0.11;-7.30;1.85
3.38;1.20;0.00;5.01;-12.96;7.41
1.74;2.07;-0.76;0.11;-20.26;1.85
0.11;-0.33;-0.76;3.38;-15.35;-5.44
26.79;-4.36;2.40;32.34;-0.87;-6.21
-1.42;3.70;0.87;0.11;-15.35;-6.21
0.98;-1.20;1.63;3.38;-2.50;-0.54
3.38;-1.96;1.63;12.20;-0.87;0.98
0.98;1.20;4.03;9.80;-0.87;1.85
2.61;5.23;4.03;2.61;0.76;-3.05
-5.44;8.49;4.03;-2.29;5.55;-3.81
-2.29;2.07;-11.22;-3.92;17.64;30.82
-5.44;-1.96;22.54;5.77;24.07;1.85
3.38;1.20;-0.76;10.67;23.30;1.85
2.61;2.07;4.90;-3.05;21.67;1.85
-22.43;1.20;-0.76;-20.80;12.85;2.61
3.38;1.20;-1.63;-13.50;4.79;1.85
5.77;6.10;-0.76;-15.14;-7.30;0.98
0.98;-1.96;-4.79;-11.98;-19.38;-2.18
-0.65;-1.96;-0.76;-11.98;-21.02;-5.44
2.61;-1.96;-1.63;0.98;-21.89;-6.21
3.38;1.20;-0.76;-0.65;-16.23;-3.81
1.74;2.07;1.63;-13.50;-16.23;-5.44
0.98;-1.96;-0.76;10.67;-4.14;0.22
0.98;-1.20;-0.76;6.64;3.92;-3.05
-7.95;-10.89;-0.76;9.80;9.58;-1.42
0.98;2.83;1.63;5.77;12.85;-3.81
-5.44;1.20;1.63;3.38;15.25;-11.11
-3.05;0.44;0.87;2.61;12.85;1.85
-5.44;2.07;2.40;5.01;10.35;1.85
3.38;5.23;-5.66;1.74;7.95;1.85
0.11;-2.83;1.63;3.38;5.55;19.49
3.38;2.07;0.87;0.11;7.19;1.85
-0.65;0.44;16.99;2.61;-0.87;-0.54
3.38;-5.99;-0.76;-2.29;1.52;1.85
3.38;3.70;-16.12;2.61;-6.53;1.85
26.79;-1.20;-0.76;0.98;-9.80;0.98
1.74;-1.20;-0.76;-3.05;-12.20;-0.54
3.38;1.20;2.40;-2.29;-8.17;-1.42
2.61;6.10;-0.76;-1.42;-0.11;0.98
3.38;1.20;-0.76;16.23;0.76;0.22
0.98;-4.36;0.00;-2.29;4.79;0.22
1.74;3.70;-0.76;2.61;21.67;1.85
2.61;2.07;2.40;1.74;5.55;-9.47
0.98;-5.23;0.00;-0.65;4.79;2.61
8.17;2.07;-0.76;-15.14;-3.27;-3.05
-0.65;2.07;-1.63;5.77;-12.20;0.22
-0.65;-30.17;4.03;-1.42;-18.62;1.85
-7.08;-1.96;4.03;-3.05;-6.53;0.22
-4.68;-8.39;4.03;-9.47;-19.38;-2.18
-3.92;0.44;2.40;-5.44;-33.11;-2.18
-3.92;-1.96;1.63;-2.29;-8.17;1.85
-1.42;24.61;-0.76;-2.29;4.79;0.98
-1.42;2.83;-0.76;5.77;7.19;1.85
-11.98;1.20;-0.76;-1.42;12.85;1.85
3.38;2.83;-5.66;0.11;18.40;1.85
4.14;2.07;-4.79;-0.65;32.13;0.22
3.38;-1.20;-0.76;3.38;0.76;-2.18
4.14;-1.20;-0.76;3.38;8.82;0.98
3.38;2.07;-1.63;6.64;7.95;-5.44
1.74;2.07;-0.76;-0.65;4.79;-2.18
0.98;3.70;-1.63;1.74;-4.14;-2.18
5.77;0.44;8.06;-3.05;-8.17;-2.18
3.38;2.07;0.00;-3.92;-5.77;-5.44
2.61;0.44;3.27;-1.42;-9.80;1.85
1.74;0.44;-0.76;-3.92;-8.93;1.85
0.11;5.23;8.06;-4.68;-5.77;-2.18
-0.65;2.07;-0.76;-2.29;-12.20;-0.54
-4.68;2.07;3.27;-2.29;-12.96;-7.08
-4.68;-0.33;3.27;-11.11;-13.83;0.22
-5.44;0.44;-18.51;0.98;-10.56;1.85
-3.05;-1.96;-24.18;-2.29;-7.30;0.98
1.74;-2.83;4.90;0.98;-8.17;13.07
21.89;2.83;-2.40;-1.42;21.67;1.85
25.92;3.70;-0.76;5.77;7.19;1.85
5.77;0.44;-2.40;5.77;16.88;2.61
3.38;-1.20;-1.63;-0.65;30.49;3.38
0.98;0.44;12.96;5.01;36.15;2.61
-13.50;-2.83;-0.76;6.64;26.46;1.85
5.01;-1.96;-4.79;1.74;17.64;1.85
-18.40;4.46;-0.76;5.77;4.79;1.85
3.38;-12.41;-0.76;0.11;-8.93;0.98
0.98;-22.11;0.87;-2.29;-18.62;0.22
26.79;2.07;0.87;-3.05;-24.28;0.98
-24.07;6.86;0.87;5.77;-22.65;-2.18
0.11;-1.96;0.87;1.74;-12.96;0.22
-10.35;27.88;-0.76;6.64;-4.14;-2.18
-4.68;-2.83;0.87;5.01;28.86;1.85
-5.44;-4.36;3.27;-23.20;4.79;-3.05
-3.92;0.44;1.63;-2.29;3.92;-1.42
-1.42;-2.83;-0.76;-11.11;6.32;-2.18
-5.44;-6.86;6.43;-36.92;4.79;-1.42
-1.42;-19.71;0.00;-5.44;-4.14;0.98
1.74;-4.36;-0.76;-3.05;0.76;-1.42
1.74;2.07;-0.76;2.61;4.79;-0.54
2.61;1.20;-0.76;-0.65;3.92;1.85
3.38;2.07;-1.63;1.74;-0.11;1.85
3.38;3.70;-2.40;37.24;16.01;0.98
-11.98;-1.20;-2.40;-4.68;23.30;1.85
4.14;1.20;0.00;-2.29;19.28;1.85
2.61;4.46;-0.76;37.24;15.25;2.61
3.38;1.20;-0.76;0.11;8.82;1.85
5.01;-4.36;-0.76;-2.29;4.79;0.98
3.38;2.83;-0.76;19.49;0.76;0.22
-0.65;2.83;-0.76;25.92;-8.17;-0.54
2.61;4.46;3.27;9.04;-13.83;-0.54
2.61;-1.20;3.27;-4.68;-18.62;-0.54
-1.42;-5.23;3.27;-17.53;-22.65;1.85
-3.92;-1.20;4.03;-29.62;-29.08;-2.18
-3.92;2.07;0.87;-26.46;-21.02;-0.54
-10.35;-4.36;4.03;-24.07;-18.62;-2.18
-2.29;4.46;0.87;-15.14;-20.26;-3.81
0.98;-1.96;-2.40;-6.32;-6.53;-5.44
2.61;-3.59;-0.76;-3.05;3.92;-7.08
4.14;2.83;-5.66;5.77;8.82;-6.21
0.98;24.61;-8.06;9.04;11.98;-2.18
4.14;-6.86;-3.16;10.67;20.04;0.98
1.74;-1.20;-0.76;10.67;7.19;-3.81
1.74;-2.83;0.00;5.77;4.79;2.61
3.38;-1.20;0.87;3.38;3.16;-0.54
0.98;3.70;-0.76;3.38;-4.14;0.22
3.38;0.44;0.87;-2.29;-8.17;-2.18
3.38;2.07;6.43;-2.29;-11.33;1.85
-0.65;2.07;3.27;-28.10;-5.77;0.98
3.38;-2.83;2.40;-1.42;0.76;4.25
-4.68;-8.39;-0.76;-1.42;4.79;4.25
-0.65;1.20;3.27;0.11;7.95;3.38
-2.29;-1.96;4.03;0.11;13.61;4.25
-0.65;6.10;2.40;1.74;10.35;26.03
-22.43;-22.11;4.03;-0.65;7.95;4.25
-0.65;-1.96;4.03;-1.42;3.92;0.98
0.11;1.20;-1.63;-3.92;4.79;20.36
3.38;-2.83;-0.76;0.98;8.82;-2.18
1.74;2.83;-0.76;0.11;5.55;-0.54
3.38;-1.20;-4.79;1.74;4.79;-1.42
2.61;0.44;-1.63;-2.29;0.76;-2.18
33.98;5.23;-0.76;0.11;-2.50;0.22
-0.65;3.70;0.87;2.61;-3.27;0.22
3.38;1.20;-2.40;-4.68;-5.77;-2.18
3.38;-1.20;-1.63;-0.65;13.61;1.85
12.20;6.10;-0.76;0.11;-0.87;-3.05
-0.65;-1.96;0.87;-1.42;-7.30;0.22
4.14;2.07;0.00;-0.65;-0.11;0.98
3.38;11.76;0.87;-2.29;-4.14;0.22
-1.42;0.44;-1.63;2.61;-0.11;3.38
4.14;-1.96;16.12;3.38;-3.27;-1.42
3.38;2.07;0.87;3.38;-2.50;0.22
1.74;-1.20;4.03;1.74;-16.99;1.85
-3.05;1.20;1.63;0.11;-0.11;-11.11
-3.92;0.44;0.87;5.77;-7.30;1.85
-4.68;2.07;1.63;19.49;-8.17;1.85
2.61;-2.83;-0.76;-2.29;-7.30;-2.18
1.74;2.07;-0.76;-2.29;-5.77;1.85
-4.68;13.29;-0.76;-14.37;3.16;1.85
3.38;1.20;-2.40;-7.08;15.25;1.85
1.74;-4.36;-0.76;-3.05;20.04;-0.54
3.38;0.44;-0.76;5.01;21.67;1.85
-0.65;11.76;-1.63;-2.29;16.01;0.98
1.74;2.07;-0.76;-24.07;8.82;1.85
0.98;-1.20;-0.76;0.11;4.79;1.85
3.38;-5.23;-0.76;7.41;-2.50;0.98
3.38;6.10;0.00;5.01;-13.83;-6.21
2.61;-6.86;-2.40;0.11;-18.62;1.85
1.74;1.20;-0.76;0.11;-2.50;-0.54
-0.65;-1.96;0.00;-2.29;-6.53;-8.60
-0.65;2.07;-0.76;-28.10;-0.87;0.98
-1.42;2.07;0.00;-3.05;-3.27;-10.24
0.98;2.07;3.27;7.41;-4.14;0.22
-2.29;-6.86;3.27;-9.47;-18.62;-5.44
-1.42;-4.36;0.87;-15.14;-17.86;-3.05
-9.47;-5.99;-0.76;-3.92;-9.80;0.22
-3.92;-5.99;6.43;3.38;-0.87;1.85
-4.68;6.10;1.63;6.64;5.55;1.85
3.38;2.07;-0.76;0.11;7.19;1.85
3.38;5.23;-0.76;0.11;10.35;0.98
4.14;1.20;-8.06;-2.29;16.88;-7.08
3.38;3.70;-0.76;-6.32;15.25;1.85
1.74;-0.33;-1.63;-1.42;6.32;3.38
4.14;-2.83;-24.18;0.11;5.55;0.22
3.38;2.07;-12.09;2.61;4.79;-3.81
3.38;5.23;-0.76;3.38;4.79;0.22
2.61;3.70;-0.76;2.61;10.35;1.85
27.55;1.20;0.00;2.61;13.61;1.85
3.38;-1.20;0.00;14.70;30.49;1.85
14.70;5.23;1.63;9.04;3.92;1.85
-6.32;-1.96;-0.76;5.01;9.58;-0.54
3.38;1.20;-0.76;-1.42;4.79;1.85
-3.92;-1.20;4.03;2.61;-18.62;3.38
0.98;3.70;3.27;-2.29;-21.02;-1.42
-4.68;1.20;3.27;-4.68;-29.95;1.85
0.98;8.49;2.40;-3.05;-46.06;-1.42
-1.42;-1.96;0.87;-2.29;-26.68;0.98
2.61;6.10;-0.76;3.38;-0.11;-3.05
2.61;3.70;-1.63;-15.14;-10.56;0.22
0.11;2.83;-13.72;1.74;-0.11;-7.08
1.74;5.23;-0.76;-4.68;4.79;-2.18
0.98;-18.08;-0.76;4.14;4.79;-1.42
0.98;3.70;-0.76;-0.65;4.79;-2.18
3.38;0.44;-5.66;-7.95;4.79;-0.54
0.98;-2.83;-1.63;27.55;4.79;1.85
0.98;-1.96;-1.63;12.20;4.79;0.98
1.74;-21.34;0.87;10.67;4.79;1.85
1.74;1.20;0.00;-10.35;2.29;11.43
3.38;2.07;-0.76;-15.14;-3.27;1.85
-0.65;1.20;0.87;-11.11;4.79;-0.54
-5.44;-1.96;0.00;-7.08;6.32;1.85
-10.35;31.04;-0.76;-15.14;8.82;1.85
-7.08;-1.20;-4.03;9.04;4.79;0.98
-1.42;-1.96;-0.76;10.67;15.25;1.85
-3.92;-1.20;0.87;9.80;11.98;1.85
31.58;1.20;1.63;8.17;5.55;1.85
-0.65;-21.34;3.27;5.01;0.76;1.85
0.98;2.07;0.00;5.01;-19.38;0.98
1.74;-1.96;-0.76;6.64;2.29;-2.18
3.38;3.70;-1.63;-1.42;-10.56;-12.63
3.38;1.20;-1.63;-2.29;-3.27;-19.93
1.74;1.20;-4.79;1.74;-13.83;1.85
3.38;0.44;-0.76;1.74;10.35;1.85
0.98;2.07;0.00;2.61;15.25;27.55
1.74;1.20;-0.76;1.74;11.98;1.85
3.38;2.07;-0.76;6.64;9.58;1.85
3.38;2.07;-0.76;3.38;-0.11;-2.18
3.38;2.07;0.87;-1.42;0.76;1.85
-3.92;2.07;0.00;-2.29;-8.17;0.22
-0.65;2.07;0.00;0.11;-16.23;2.61
-1.42;0.44;0.00;-1.42;-21.02;1.85
-11.98;2.07;1.63;-4.68;-26.68;1.85
2.61;-1.20;-6.43;-3.92;-7.30;1.85
-3.92;2.83;3.27;0.11;4.79;1.85
-0.65;-2.83;3.27;10.67;16.88;-0.54
-3.92;-2.83;-0.76;-3.05;17.64;-23.96
0.98;1.20;-0.76;-3.05;7.95;0.98
-3.92;-2.83;-5.66;-6.32;21.67;1.85
-3.92;-1.20;0.87;-2.29;16.88;-2.18
2.61;1.20;-2.40;-0.65;4.79;-8.60
-3.92;-4.36;-1.63;-2.29;-8.93;-2.18
3.38;2.07;-4.79;-0.65;-25.92;-16.66
3.38;4.46;-2.40;-0.65;-33.11;1.85
3.38;2.07;0.87;2.61;-42.04;22.00
0.98;-28.53;-0.76;-2.29;-37.13;0.98
3.38;-1.20;-1.63;-2.29;-41.16;-0.54
3.38;2.07;2.40;0.98;-16.99;1.85
4.14;1.20;1.63;-2.29;3.92;-0.54
3.38;2.07;-0.76;-2.29;-0.11;2.61
0.98;-2.83;0.00;1.74;26.46;0.98
1.74;2.07;3.27;2.61;26.46;1.85
30.71;3.70;3.27;2.61;23.30;-7.08
-1.42;-1.20;-5.66;5.01;20.04;0.98
-0.65;2.07;1.63;7.41;26.46;1.85
-1.42;-4.36;1.63;5.77;30.49;-23.96
-1.42;-1.20;0.00;5.77;24.94;6.64
0.98;-2.83;-0.76;5.01;7.19;1.85
-1.42;-1.20;-0.76;0.11;4.79;1.85
1.74;2.07;-0.76;-1.42;-12.96;23.52
-11.11;-4.36;-2.40;0.11;-21.02;0.98
-0.65;1.20;-2.40;3.38;-23.41;5.88
-6.32;-22.11;0.00;14.70;-21.89;-0.54
3.38;2.83;-0.76;2.61;-8.93;-6.21
5.01;-1.20;-2.40;2.61;-18.62;-3.81
3.38;-1.96;-2.40;15.46;-25.05;-5.44
2.61;-0.33;-3.16;-7.08;-25.05;-3.05
3.38;5.23;-0.76;-7.95;4.79;-2.18
6.64;-1.96;4.90;-4.68;17.64;-0.54
3.38;4.46;-0.76;-1.42;10.35;27.55
0.11;1.20;-0.76;-2.29;10.35;-0.54
0.11;1.20;-3.16;0.11;4.79;0.22
-4.68;-2.83;0.00;33.21;4.79;-0.54
-1.42;-10.89;0.87;0.98;3.16;1.85
2.61;3.70;1.63;1.74;-7.30;1.85
-0.65;3.70;3.27;0.98;-10.56;1.85
-3.92;1.20;3.27;-1.42;-7.30;0.22
16.23;0.44;1.63;-3.05;8.82;0.22
-3.92;18.19;0.00;-30.49;1.52;-0.54
1.74;0.44;16.99;-0.65;36.15;1.85
1.74;-1.20;-0.76;0.11;11.98;-2.18
3.38;6.10;-1.63;-3.05;13.61;2.61
1.74;-2.83;-1.63;-0.65;8.82;4.25
1.74;-0.33;-2.40;1.74;13.61;1.85
3.38;0.44;0.00;-4.68;2.29;-2.18
3.38;1.20;-2.40;0.11;0.76;0.98
3.38;-1.96;0.87;0.11;-6.53;-9.47
-2.29;-1.96;4.90;1.74;-12.96;27.55
9.04;0.44;-3.16;0.11;-12.96;0.22
0.98;-1.96;-0.76;0.11;-12.96;-15.90
-0.65;-5.23;1.63;-2.29;-5.77;-3.05
-1.42;2.07;0.87;-0.65;-4.90;-0.54
-1.42;-4.36;3.27;0.11;-0.87;1.85
-2.29;-12.41;3.27;-3.05;3.16;1.85
-6.32;-5.99;19.38;0.11;4.79;-27.99
4.14;-5.99;6.43;2.61;4.79;-0.54
-2.29;-2.83;4.90;-6.32;4.79;1.85
0.98;2.07;-13.72;-2.29;2.29;-2.18
-1.42;-4.36;-24.18;2.61;0.76;1.85
1.74;29.40;-0.76;13.07;-2.50;0.98
1.74;3.70;-3.16;9.04;0.76;0.22
-2.29;2.07;-0.76;7.41;3.16;1.85
1.74;4.46;-4.79;10.67;3.92;-0.54
2.61;1.20;-0.76;-15.14;3.16;0.98
1.74;-1.20;-1.63;-10.35;29.73;-2.18
-0.65;-1.96;-4.03;-11.11;5.55;-5.44
-0.65;-24.50;-3.16;-15.14;9.58;1.85
3.38;-1.20;0.00;-13.50;4.79;0.98
23.52;2.07;-0.76;-11.11;0.76;1.85
4.14;-0.33;-0.76;-9.47;-2.50;0.22
2.61;-2.83;-0.76;-3.92;-7.30;-2.18
0.11;0.44;-1.63;5.77;-10.56;0.22
2.61;-2.83;21.78;5.77;-13.83;-19.17
2.61;-27.77;1.63;0.98;-3.27;1.85
-3.92;-4.36;-12.85;9.80;3.92;-3.81
-5.44;29.40;4.90;9.80;4.79;-5.44
-5.44;-2.83;22.54;1.74;13.61;-2.18
-1.42;5.23;-22.54;0.11;9.58;-23.20
2.61;-6.86;1.63;-3.05;-16.99;0.22
2.61;18.19;-0.76;21.13;-0.87;0.98
3.38;2.07;-4.03;-1.42;-8.93;1.85
3.38;-1.20;-0.76;-4.68;-12.20;1.85
0.98;1.20;-0.76;-4.68;-21.02;-22.32
1.74;1.20;12.09;-0.65;-21.02;-2.18
-1.42;-4.36;-4.03;-2.29;-13.83;-2.18
10.67;3.70;-0.76;0.11;-3.27;1.85
-0.65;-3.59;-12.09;-2.29;5.55;-3.81
2.61;6.10;-0.76;-0.65;8.82;0.22
0.98;-7.62;-0.76;1.74;8.82;1.85
-7.08;1.20;-0.76;1.74;7.19;1.85
0.11;1.20;0.00;4.14;10.35;1.85
-2.29;-5.99;0.87;1.74;0.76;-0.54
-1.42;-1.96;2.40;1.74;-0.87;-3.81
-3.92;3.70;1.63;10.67;-7.30;0.98
-3.92;0.44;3.27;-5.44;-5.77;1.85
-0.65;-5.23;2.40;-1.42;3.16;0.98
-5.44;-4.36;0.00;0.11;3.92;1.85
-1.42;2.07;-10.45;0.98;7.19;1.85
-2.29;-1.20;-1.63;1.74;6.32;0.98
-0.65;-2.83;-11.22;-0.65;17.64;19.49
3.38;0.44;-3.16;-15.14;31.36;0.22
3.38;-1.20;-3.16;3.38;16.01;0.98
13.83;2.07;-2.40;-3.05;21.67;-3.05
2.61;6.10;-3.16;6.64;-0.87;1.85
3.38;3.70;-1.63;-3.92;-9.80;-0.54
4.14;-1.20;-0.76;-1.42;-26.68;-3.05
0.11;2.07;-0.76;-3.05;-25.92;2.61
-0.65;1.20;-0.76;-5.44;-33.98;-3.81
-3.92;1.20;4.03;-4.68;-32.34;-2.18
-4.68;-0.33;1.63;-0.65;-21.02;-0.54
0.98;3.70;3.27;-0.65;-8.17;3.38
0.98;4.46;2.40;-3.05;6.32;1.85
-4.68;0.44;-23.30;-1.42;20.04;-23.96
-2.29;5.23;-0.76;-2.29;32.13;0.98
-7.08;0.44;1.63;3.38;30.49;1.85
0.98;5.23;4.03;-1.42;29.73;0.98
-1.42;1.20;4.03;0.11;16.01;-11.87
-14.37;-28.53;0.00;10.67;1.52;-2.18
2.61;2.07;-0.76;11.43;-12.96;0.22
3.38;-1.20;0.00;1.74;-18.62;-5.44
3.38;-18.95;-0.76;-3.92;-21.02;-0.54
3.38;0.44;-4.03;-4.68;-19.38;0.98
-0.65;-1.20;-1.63;-11.98;-15.35;1.85
7.41;-3.59;-2.40;-11.11;0.76;14.70
2.61;-2.83;0.00;-12.74;4.79;1.85
3.38;-1.20;0.00;-3.05;6.32;-1.42
-22.43;11.76;-4.03;-27.22;11.98;0.98
1.74;-2.83;0.87;3.38;16.88;1.85
-4.68;4.46;-0.76;1.74;14.37;1.85
0.11;0.44;0.00;8.17;4.79;2.61
3.38;-2.83;-3.16;8.17;3.16;13.07
-1.42;21.34;0.00;2.61;-5.77;1.85
-6.32;6.10;-0.76;-28.86;-7.30;-0.54
0.11;2.83;13.72;0.98;-6.53;13.94
-3.92;-3.59;6.43;2.61;-5.77;2.61
-2.29;-1.96;3.27;1.74;-2.50;0.98
-4.68;2.83;4.03;6.64;3.92;0.98
2.61;2.83;0.87;1.74;4.79;-2.18
-0.65;-14.92;-0.76;1.74;7.19;3.38
0.98;5.23;-1.63;3.38;10.35;1.85
2.61;2.07;-2.40;0.98;7.95;2.61
-22.43;2.07;-0.76;-3.05;2.29;0.22
3.38;0.44;-0.76;-6.32;2.29;-2.18
5.01;-22.11;-2.40;0.11;-4.14;-2.18
1.74;0.44;0.00;-9.47;-5.77;-2.18
3.38;2.07;-0.76;-3.05;-13.83;15.46
0.98;1.20;0.00;-2.29;-18.62;-4.57
-1.42;-1.96;-0.76;-4.68;-38.01;0.98
2.61;-1.20;-0.76;-10.35;-15.35;1.85
-17.53;-7.62;0.00;0.11;-10.56;-1.42
1.74;29.40;-1.63;0.98;2.29;1.85
3.38;-24.50;2.40;30.71;4.79;-0.54
-0.65;2.07;3.27;1.74;13.61;5.01
-34.52;4.46;6.43;3.38;20.91;1.85
-1.42;3.70;0.00;5.77;23.30;2.61
3.38;-1.96;3.27;0.11;25.70;1.85
-0.65;-1.20;0.00;5.01;2.29;1.85
-1.42;4.46;0.00;6.64;4.79;1.85
0.98;2.07;2.40;8.17;3.92;0.98
-0.65;3.70;-0.76;2.61;-2.50;1.85
-0.65;2.07;-0.76;9.04;-16.23;-11.87
3.38;2.07;-2.40;6.64;-21.89;-1.42
13.83;2.83;4.03;-4.68;-16.23;-24.72
3.38;5.23;-3.16;-11.11;-7.30;1.85
3.38;4.46;0.00;-15.14;-4.14;1.85
3.38;-0.33;-4.79;-15.14;-0.11;-0.54
2.61;0.44;0.00;-15.14;4.79;0.22
0.11;-1.20;-4.79;-9.47;7.95;7.41
-1.42;-1.20;-0.76;-10.35;12.85;0.22
0.98;2.07;-0.76;5.01;9.58;-9.47
-0.65;2.07;-0.76;-15.14;13.61;-0.54
2.61;1.20;0.00;11.43;15.25;-2.18
-0.65;1.20;12.09;7.41;7.19;1.85
-4.68;-2.83;0.87;12.20;4.79;0.22
-3.92;-4.36;-0.76;6.64;4.79;3.38
-0.65;6.10;4.03;-3.05;7.19;0.98
-1.42;3.70;7.30;-3.92;-15.35;1.85
1.74;-5.23;2.40;-1.42;-21.02;1.85
1.74;1.20;-11.22;-3.92;-21.02;1.85
3.38;3.70;1.63;0.11;-21.02;16.33
27.55;-0.33;0.00;2.61;-16.23;-0.54
3.38;5.23;-0.76;13.07;2.29;-0.54
2.61;4.46;-0.76;1.74;4.79;6.64
1.74;2.83;-0.76;-28.10;3.92;-0.54
3.38;3.70;-0.76;-0.65;6.32;-0.54
2.61;-2.83;-6.43;-0.65;16.88;16.33
3.38;-1.20;-0.76;-0.65;24.94;-3.05
2.61;2.07;-1.63;1.74;2.29;1.85
5.01;-0.33;-0.76;2.61;2.29;0.22
4.14;-4.36;-8.06;-3.05;-4.14;1.85
-8.71;-1.96;2.40;-1.42;10.35;-3.81
0.98;-1.96;3.27;-1.42;-10.56;-5.44
-4.68;-4.36;1.63;-4.68;4.79;1.85
1.74;3.70;1.63;2.61;15.25;0.22
-3.92;6.10;0.87;-3.92;17.64;4.25
-9.47;-4.36;1.63;5.01;4.79;0.98
20.26;-2.83;4.03;1.74;-4.90;2.61
-0.65;-2.83;0.00;-2.29;-12.20;-0.54
3.38;2.07;-0.76;-2.29;-6.53;27.55
4.14;3.70;-2.40;-2.29;-5.77;1.85
1.74;2.07;-5.66;-0.65;-10.56;2.61
3.38;10.89;-1.63;-2.29;-1.74;1.85
3.38;4.46;0.87;-0.65;4.79;-13.50
0.98;-1.20;4.03;-1.42;10.35;-6.21
1.74;-1.96;-0.76;2.61;10.35;0.98
3.38;-20.47;-0.76;-3.05;4.79;-0.54
1.74;17.32;-0.76;4.14;0.76;-0.54
1.74;1.20;-1.63;0.11;4.79;-2.18
3.38;1.20;4.03;3.38;4.79;1.85
25.16;5.23;-1.63;0.98;-2.50;-6.21
21.13;4.46;-0.76;5.01;2.29;-1.42
8.17;4.46;8.06;2.61;-2.50;1.85
-4.68;-1.96;0.87;5.77;0.76;-7.84
-0.65;-2.83;4.90;7.41;-10.56;1.85
-5.44;-1.96;-4.79;-0.65;-20.26;-0.54
-8.71;3.70;0.00;-22.43;-15.35;-2.18
-7.08;3.70;1.63;-9.47;2.29;-0.54
-1.42;-2.83;0.00;-9.47;-7.30;15.46
-1.42;-1.96;1.63;-10.35;-3.27;0.98
0.98;-24.50;-1.63;-6.32;4.79;1.85
3.38;1.20;-0.76;-5.44;3.16;1.85
3.38;3.70;-5.66;-1.42;3.92;0.98
4.14;0.44;-2.40;-3.05;8.82;2.61
3.38;-1.96;25.81;2.61;10.35;0.98
3.38;-2.83;-1.63;6.64;4.79;1.85
-1.42;-1.20;-3.16;28.31;24.94;1.85
3.38;-1.96;-20.91;5.01;17.64;-7.84
2.61;5.23;0.87;3.38;11.98;5.88
3.38;-2.83;-0.76;1.74;10.35;5.88
0.98;-1.96;1.63;3.38;5.55;1.85
2.61;-1.20;3.27;0.98;3.16;2.61
-0.65;-1.96;4.03;3.38;-6.53;1.85
-3.92;2.83;0.00;2.61;-4.90;1.85
-0.65;2.07;6.43;3.38;-3.27;-3.81
-3.92;2.07;4.90;3.38;-3.27;1.85
-2.29;3.70;-0.76;24.28;7.19;-0.54
0.98;-1.20;-0.76;-2.29;-4.14;-11.11
-2.29;-5.99;0.87;-7.08;-9.80;-0.54
1.74;-34.19;0.00;-5.44;-6.53;10.67
2.61;0.44;-0.76;-4.68;-12.20;-2.18
3.38;-6.86;-1.63;3.38;2.29;-3.05
0.98;2.07;-0.76;-2.29;3.92;1.85
1.74;1.20;-3.16;-2.29;-0.87;25.16
3.38;2.07;0.87;-2.29;6.32;2.61
1.74;-1.20;-0.76;0.11;11.98;2.61
0.98;21.34;-0.76;1.74;9.58;1.85
-13.50;-1.96;-2.40;13.83;-5.77;-0.54
-0.65;-4.36;-0.76;0.11;7.95;-25.59
1.74;-4.36;-0.76;-3.05;4.79;-0.54
0.98;-1.20;-0.76;0.11;4.79;-2.18
-3.92;-3.59;-0.76;-2.29;0.76;-10.24
0.98;-1.96;0.87;5.77;-4.90;-6.21
8.17;3.70;3.27;0.11;-8.93;4.25
-22.43;-2.83;4.90;5.77;-15.35;0.98
2.61;-1.96;1.63;11.43;-16.99;1.85
0.98;2.07;8.06;3.38;-16.23;20.36
-3.92;-9.26;25.81;0.98;-15.35;-0.54
-1.42;0.44;2.40;-3.92;-12.20;-2.18
0.11;0.44;-3.16;-4.68;18.40;-0.54
-1.42;2.07;0.87;-15.14;-0.87;-0.54
0.98;2.83;-4.79;-7.95;2.29;-3.81
3.38;3.70;-3.16;-3.05;2.29;-1.42
-1.42;24.61;-0.76;-3.92;-3.27;-5.44
2.61;-23.74;-4.79;2.61;-4.14;-3.05
5.01;-4.36;-0.76;-3.05;-8.93;0.22
3.38;2.07;-0.76;0.11;8.82;1.85
3.38;-1.96;-0.76;5.77;7.95;0.98
2.61;-1.20;0.00;7.41;7.95;0.98
1.74;-10.89;-1.63;5.77;7.19;4.25
-0.65;0.44;4.03;8.17;11.98;2.61
1.74;-1.20;-0.76;9.04;16.88;0.98
2.61;2.83;14.48;22.76;20.04;1.85
-1.42;3.70;25.05;19.49;20.04;1.85
-32.89;-2.83;4.90;10.67;16.88;5.88
0.98;0.44;-6.43;2.61;4.79;-0.54
0.98;-1.20;5.66;-10.35;5.55;1.85
-0.65;-11.65;6.43;-15.14;-3.27;13.07
2.61;4.46;1.63;-14.37;-10.56;9.91
0.98;0.44;1.63;-13.50;-13.83;0.98
3.38;1.20;-0.76;-15.14;-16.99;-3.05
2.61;-1.96;-0.76;-10.35;-22.65;-2.18
3.38;0.44;-0.76;-3.92;-24.28;-1.42
3.38;-1.20;-1.63;-3.05;3.92;-3.81
1.74;-1.20;-4.79;3.38;4.79;-2.18
-1.42;2.07;-3.16;2.61;20.04;-0.54
3.38;-1.20;-0.76;10.67;18.40;1.85
3.38;6.10;-0.76;8.17;7.19;1.85
-16.01;-1.20;-0.76;0.11;2.29;4.25
0.98;2.07;-0.76;11.43;-4.14;1.85
0.11;0.44;0.87;0.11;-3.27;0.98
9.04;3.70;3.27;-15.14;-5.77;-0.54
0.11;-3.59;-0.76;1.74;-12.20;7.41
-10.35;-5.23;0.87;-3.05;-7.30;-4.57
-4.68;-0.33;1.63;2.61;0.76;1.85
0.11;-5.23;1.63;-2.29;-0.87;0.22
-3.92;-3.59;4.90;0.11;-9.80;0.22
-3.92;0.44;0.87;-0.65;-4.14;1.85
0.11;2.07;0.00;5.77;-5.77;1.85
-3.92;-1.20;0.87;-12.74;-4.14;0.22
3.38;3.70;0.87;8.17;3.92;1.85
3.38;-2.83;-0.76;8.17;5.55;0.98
3.38;-10.89;-0.76;3.38;14.37;1.85
3.38;3.70;-0.76;-1.42;16.88;26.03
3.38;1.20;-26.57;-3.05;7.19;-0.54
-3.92;3.70;0.00;-10.35;11.98;1.85
2.61;3.70;-0.76;-7.08;9.58;-0.54
3.38;4.46;-0.76;-2.29;-6.53;0.22
3.38;-1.20;-0.76;-2.29;13.61;2.61
-7.95;2.07;0.87;-6.32;4.79;1.85
-10.35;3.70;0.87;28.31;2.29;0.98
-35.28;-20.47;-0.76;-2.29;-0.87;1.85
0.98;-1.20;-0.76;0.11;-9.80;2.61
-2.29;3.70;1.63;2.61;-12.20;-0.54
-6.32;2.07;4.03;-21.56;-7.30;0.22
2.61;-5.99;3.27;3.38;-11.33;1.85
0.98;-1.20;0.87;-0.65;29.73;-2.18
-1.42;2.83;2.40;5.01;3.16;0.98
-5.44;-5.23;1.63;0.11;3.16;1.85
2.61;-4.36;24.18;-1.42;4.79;-10.24
-2.29;1.20;3.27;5.01;3.92;-2.18
2.61;-1.20;-0.76;0.98;3.16;1.85
4.14;-25.37;-0.76;-2.29;4.79;-2.18
-7.08;2.07;-2.40;-0.65;4.79;1.85
2.61;2.07;-0.76;-0.65;1.52;-0.54
3.38;3.70;-0.76;-16.01;-3.27;-0.54
-0.65;-10.89;-0.76;-3.92;-5.77;-11.87
1.74;-2.83;-0.76;-2.29;-8.93;1.85
2.61;-2.83;-0.76;-0.65;-5.77;1.85
0.98;-1.96;-0.76;-2.29;-8.93;12.31
1.74;1.20;-0.76;2.61;0.76;1.85
1.74;3.70;-0.76;-1.42;4.79;2.61
-10.35;-26.14;4.03;6.64;9.58;0.98
-22.43;-1.96;2.40;9.80;12.85;9.04
-4.68;2.07;3.27;3.38;7.19;-1.42
-1.42;0.44;3.27;0.11;6.32;2.61
-4.68;-4.36;4.03;-2.29;-0.11;0.22
-7.08;-5.23;4.03;-0.65;-7.30;-13.50
-2.29;-5.23;-14.48;-2.29;16.88;0.98
1.74;14.92;0.87;8.17;-12.96;-0.54
2.61;-18.08;-0.76;-6.32;-15.35;1.85
1.74;-2.83;12.09;-6.32;-12.20;16.33
3.38;-1.20;-0.76;-4.68;-2.50;-2.18
2.61;4.46;-1.63;-3.05;5.55;2.61
2.61;5.23;-0.76;-1.42;-12.96;1.85
3.38;-26.90;-2.40;2.61;3.92;0.22
3.38;-20.47;-1.63;5.77;7.19;0.98
3.38;1.20;-2.40;1.74;18.40;1.85
1.74;1.20;-0.76;14.70;27.33;-0.54
-0.65;2.07;0.00;9.80;22.43;2.61
15.46;3.70;0.87;6.64;6.32;1.85
-1.42;5.23;0.87;7.41;9.58;1.85
-20.80;-1.20;3.27;11.43;-0.11;-3.81
2.61;-1.96;3.27;10.67;-3.27;3.38
-3.92;-1.20;0.00;0.11;-9.80;-2.18
25.16;-2.83;1.63;-13.50;-9.80;1.85
-16.77;-31.80;-0.76;-15.14;-8.93;0.22
-3.92;-1.96;-0.76;-16.77;-10.56;1.85
21.13;-1.96;-0.76;-13.50;-7.30;0.98
0.98;-30.17;-0.76;-12.74;-4.14;0.98
-1.42;4.46;1.63;-10.35;-5.77;-4.57
1.74;2.07;0.00;-6.32;7.19;-0.54
1.74;-3.59;-0.76;-1.42;3.92;0.98
3.38;-1.20;-8.06;0.11;4.79;-8.60
3.38;-2.83;-4.03;8.17;1.52;-1.42
3.38;1.20;-1.63;10.67;5.55;-23.96
5.01;-6.86;-1.63;12.20;3.16;-2.18
1.74;2.07;-0.76;10.67;-0.87;-3.05
0.11;-5.23;-0.76;9.04;4.79;3.38
26.79;-2.83;-0.76;6.64;7.19;1.85
0.98;6.10;-0.76;2.61;4.79;0.22
-10.35;10.13;1.63;5.01;4.79;0.98
0.98;3.70;2.40;3.38;11.98;2.61
14.70;5.23;1.63;0.98;16.88;1.85
-2.29;4.46;3.27;-0.65;12.85;1.85
32.34;-2.83;4.03;-4.68;13.61;-0.54
-22.43;1.20;4.90;-1.42;15.25;5.88
-3.92;-1.20;6.43;11.43;7.95;1.85
0.98;4.46;0.00;-6.32;4.79;-2.18
-0.65;-2.83;0.00;0.98;-4.14;-3.05
-1.42;-1.20;-0.76;-2.29;-6.53;-2.18
2.61;1.20;0.00;1.74;-21.02;0.22
-1.42;-6.86;-0.76;7.41;-21.02;-1.42
3.38;14.16;-3.16;10.67;-21.89;-3.05
2.61;-1.20;-0.76;6.64;-26.68;0.98
3.38;3.70;0.00;-0.65;-22.65;-23.96
2.61;4.46;0.00;-6.32;-8.17;-2.18
1.74;-5.99;-1.63;-14.37;4.79;0.98
-0.65;3.70;-0.76;-17.53;5.55;-3.05
7.41;-27.77;-0.76;-15.14;4.79;-3.05
2.61;3.70;-0.76;-11.98;4.79;-6.21
2.61;-1.96;-14.48;-1.42;3.92;-11.11
-2.29;0.44;0.00;0.11;-2.50;-8.60
0.98;1.20;1.63;18.73;-5.77;0.98
2.61;3.70;21.02;10.67;4.79;1.85
-1.42;-5.23;1.63;13.83;0.76;38.11
-4.68;-1.20;1.63;10.67;-4.14;-3.81
2.61;-26.90;1.63;6.64;-3.27;5.88
0.98;2.83;-0.76;-7.95;4.79;1.85
0.98;2.07;4.90;-4.68;10.35;1.85
5.01;-4.36;-0.76;-3.92;15.25;-23.96
-26.46;5.23;-0.76;-3.92;18.40;0.98
0.98;31.04;-0.76;10.67;22.43;0.98
2.61;1.20;0.00;1.74;10.35;1.85
3.38;3.70;8.06;-3.05;4.79;6.64
1.74;0.44;0.00;3.38;-0.11;0.98
-0.65;0.44;-1.63;1.74;2.29;-8.60
3.38;0.44;-1.63;5.77;2.29;-0.54
5.77;0.44;-4.79;2.61;-2.50;-7.08
30.71;-2.83;-0.76;2.61;-2.50;0.98
1.74;1.20;-0.76;-0.65;2.29;1.85
25.16;6.10;3.27;-0.65;0.76;-3.05
3.38;24.61;3.27;-0.65;-0.11;1.85
0.98;1.20;29.84;-1.42;0.76;0.98
0.98;1.20;4.03;0.98;-2.50;0.22
23.52;1.20;4.90;-0.65;-4.90;-1.42
-1.42;-5.99;6.43;11.43;-5.77;0.22
3.38;1.20;2.40;-2.29;-2.50;1.85
0.98;0.44;3.27;-2.29;7.95;1.85
-1.42;2.07;2.40;2.61;4.79;0.22
-0.65;-19.71;-0.76;1.74;1.52;1.85
-2.29;1.20;-0.76;2.61;3.16;-0.54
2.61;-1.96;-0.76;-2.29;5.55;1.85
0.98;1.20;-0.76;3.38;5.55;1.85
3.38;-1.20;-22.54;-2.29;4.79;-5.44
-0.65;0.44;-0.76;0.11;7.19;1.85
3.38;-1.20;0.87;1.74;2.29;-23.96
3.38;-1.20;-0.76;5.01;1.52;-23.96
2.61;5.23;0.87;5.01;-3.27;-7.08
3.38;2.07;-0.76;-2.29;-6.53;-2.18
2.61;-1.96;0.00;0.98;-6.53;-31.25
2.61;2.07;0.00;-2.29;15.25;1.85
-0.65;0.44;0.00;-9.47;4.79;0.98
1.74;2.07;-0.76;-22.43;-8.17;0.22
-4.68;-2.83;4.90;-24.07;-5.77;0.22
15.46;-4.36;0.87;-15.14;-8.93;-1.42
-3.92;3.70;1.63;-6.32;2.29;-23.96
-3.92;-1.96;0.00;0.11;4.79;1.85
-3.92;1.20;-0.76;-15.14;3.92;0.98
0.98;3.70;-0.76;0.98;4.79;1.85
-0.65;34.30;0.87;7.41;6.32;-2.18
3.38;-1.20;-1.63;9.04;4.79;-2.18
3.38;2.07;-2.40;8.17;10.35;1.85
20.26;3.70;-3.16;9.04;10.35;-18.30
2.61;5.23;-0.76;-0.65;3.92;1.85
0.11;2.83;-0.76;-2.29;4.79;2.61
-0.65;2.07;-0.76;-7.08;4.79;1.85
3.38;1.20;-0.76;-4.68;3.92;0.98
2.61;-1.20;-5.66;-0.65;3.92;0.98
-0.65;5.23;-0.76;21.13;2.29;1.85
3.38;4.46;1.63;0.98;-7.30;-0.54
-3.92;-6.86;0.87;-1.42;0.76;-2.18
-2.29;2.07;0.00;1.74;-5.77;0.22
-3.92;-1.96;1.63;3.38;-6.53;-3.05
0.98;0.44;0.87;9.80;17.64;1.85
0.11;-0.33;3.27;1.74;16.88;17.97
-1.42;4.46;-8.06;-4.68;23.30;27.55
-11.98;5.23;2.40;-2.29;17.64;1.85
-1.42;2.07;-14.48;-1.42;17.64;2.61
3.38;-1.96;-0.76;-4.68;8.82;1.85
1.74;3.70;-0.76;-2.29;-10.56;2.61
1.74;1.20;-21.78;0.11;-28.31;0.98
3.38;0.44;-0.76;-0.65;-31.47;-0.54
4.14;-1.20;0.00;-7.95;-36.37;-1.42
3.38;-1.96;-0.76;-1.42;-33.11;-2.18
3.38;0.44;-1.63;-4.68;-18.62;-23.96
1.74;0.44;-0.76;0.98;0.76;-6.21
2.61;-0.33;-3.16;-15.14;10.35;-5.44
3.38;1.20;-0.76;6.64;18.40;-2.18
-1.42;3.70;1.63;1.74;38.55;1.85
0.98;-4.36;10.45;-2.29;16.88;1.85
0.11;-1.96;1.63;-10.35;5.55;-11.87
3.38;0.44;0.87;-9.47;-4.14;0.22
-1.42;2.07;-0.76;-13.50;-12.96;1.85
1.74;1.20;4.90;-19.17;-12.20;0.22
-16.77;-24.50;4.03;14.70;-33.11;-0.54
-7.95;-1.20;2.40;-3.05;0.76;-2.18
1.74;-1.96;-0.76;-0.65;3.16;0.98
-0.65;-4.36;0.87;6.64;4.79;-0.54
-3.92;-2.83;0.00;13.07;10.35;-11.11
0.98;-1.20;12.96;12.20;10.35;-3.81
3.38;-20.47;-2.40;8.17;11.22;1.85
4.14;-12.41;0.00;-3.92;7.95;1.85
2.61;6.10;-6.43;-6.32;4.79;0.22
-9.47;5.23;0.00;-4.68;4.79;0.22
0.98;5.23;-0.76;-7.08;5.55;26.79
3.38;1.20;0.87;-0.65;3.16;33.21
3.38;1.20;0.00;0.11;3.92;1.85
3.38;3.70;0.87;3.38;-0.87;0.98
0.98;-1.96;-2.40;0.11;1.52;1.85
0.98;0.44;0.00;0.98;3.92;13.07
0.11;2.83;0.00;3.38;-2.50;0.22
-0.65;0.44;-0.76;6.64;0.76;0.22
-1.42;3.70;3.27;8.17;0.76;1.85
-1.42;-1.20;1.63;5.01;1.52;2.61
0.11;-1.20;-0.76;-2.29;1.52;1.85
1.74;13.29;4.90;-26.46;3.16;1.85
-1.42;10.89;4.03;-9.47;4.79;-2.18
-0.65;3.70;1.63;-13.50;3.92;-0.54
3.38;-2.83;0.00;-2.29;0.76;0.22
-2.29;3.70;0.00;-2.29;3.16;0.98
3.38;2.07;-8.06;-0.65;-0.11;1.85
1.74;1.20;-4.79;-28.86;-4.14;-1.42
3.38;1.20;-3.16;-2.29;-6.53;-2.18
-10.35;1.20;-2.40;-4.68;-25.92;-2.18
3.38;2.07;-0.76;-3.05;-9.80;-2.18
4.14;4.46;-0.76;-6.32;-12.20;-2.18
3.38;-4.36;13.72;-3.92;-8.93;27.55
-1.42;2.07;-0.76;-7.08;-7.30;0.98
0.98;-2.83;-0.76;-5.44;-3.27;1.85
2.61;16.55;1.63;-2.29;-2.50;-0.54
17.86;1.20;-0.76;-2.29;4.79;-6.21
0.11;-2.83;-0.76;5.01;8.82;1.85
-0.65;-1.20;0.00;9.80;17.64;2.61
3.38;1.20;4.90;15.46;13.61;1.85
-0.65;2.07;5.66;22.76;16.01;1.85
-1.42;0.44;4.03;1.74;16.88;2.61
0.98;14.92;4.90;6.64;8.82;3.38
-4.68;-1.96;1.63;-3.05;-2.50;1.85
1.74;-1.20;4.03;-13.50;-4.90;-1.42
0.98;0.44;-1.63;-15.14;-16.23;-1.42
1.74;-1.20;-0.76;-20.04;-19.38;17.10
0.98;1.20;-4.79;-11.11;-12.20;-2.18
3.38;-1.20;-0.76;-9.47;-21.89;-3.05
1.74;17.32;-1.63;-6.32;-21.02;1.85
-14.37;31.91;-0.76;-3.92;-8.17;-2.18
0.98;-1.96;-0.76;-1.42;4.79;12.31
3.38;2.07;-0.76;5.01;8.82;1.85
-0.65;1.20;-0.76;11.43;11.98;-0.54
1.74;-1.96;-0.76;8.17;16.88;0.22
3.38;2.07;0.00;0.98;8.82;1.85
3.38;-12.41;-0.76;9.80;13.61;1.85
-1.42;-4.36;0.00;6.64;-9.80;-3.05
-0.65;-1.20;1.63;0.11;8.82;2.61
-4.68;5.23;3.27;3.38;4.79;1.85
2.61;3.70;8.06;1.74;0.76;4.25
0.98;-1.20;1.63;0.11;4.79;2.61
-2.29;1.20;-0.76;0.98;0.76;2.61
-2.29;4.46;14.48;-0.65;-0.87;0.22
-9.47;-1.20;-0.76;-2.29;-4.14;0.98
1.74;-2.83;0.00;-0.65;3.92;1.85
-5.44;2.07;-0.76;-2.29;6.32;-8.60
-1.42;-1.20;-21.78;-2.29;19.28;-23.20
-3.92;15.79;-1.63;-2.29;16.88;-3.05
-2.29;-2.83;-0.76;-3.92;12.85;0.98
-1.42;-1.20;-0.76;0.98;0.76;27.55
-0.65;5.23;-0.76;-1.42;-13.83;-3.05
3.38;1.20;-3.16;-2.29;-28.31;-3.81
1.74;-1.96;-1.63;-2.29;-41.16;-0.54
-0.65;2.83;-0.76;-2.29;-44.43;-2.18
1.74;2.83;-0.76;-2.29;-33.11;-3.05
-1.42;-28.53;-0.76;-9.47;-21.89;-5.44
-1.42;-27.77;-1.63;-1.42;-9.80;-0.54
2.61;-2.83;-0.76;-2.29;15.25;-0.54
-2.29;-1.20;2.40;-3.05;2.29;-1.42
-10.35;-5.99;29.08;1.74;7.19;2.61
-0.65;10.13;0.87;-30.49;10.35;0.98
-4.68;0.44;3.27;-2.29;15.25;-0.54
-3.92;2.07;0.87;1.74;17.64;-3.05
-0.65;1.20;-1.63;1.74;17.64;0.98
-0.65;-2.83;-3.16;8.17;16.01;1.85
4.14;1.20;19.38;13.83;18.40;3.38
27.55;1.20;-3.16;16.23;9.58;1.85
4.14;-26.90;-1.63;8.17;16.01;2.61
3.38;6.10;-0.76;5.01;16.88;1.85
3.38;-1.96;-0.76;1.74;13.61;1.85
2.61;44.00;0.00;-12.74;9.58;1.85
3.38;24.61;0.00;-3.92;3.92;1.85
2.61;1.20;-2.40;-2.29;-0.11;-12.63
0.98;4.46;0.00;-5.44;-4.14;-3.81
1.74;-1.96;-0.76;-0.65;-9.80;1.85
-0.65;1.20;-0.76;-1.42;-12.20;-2.18
3.38;-9.26;0.00;2.61;-31.47;-3.05
-15.14;22.98;-1.63;0.98;-17.86;-2.18
-5.44;-4.36;4.90;3.38;-9.80;0.98
-4.68;6.10;4.03;-3.05;-8.17;-2.18
-9.47;6.10;3.27;1.74;-7.30;1.85
-2.29;-4.36;37.03;-0.65;-1.74;-0.54
-7.08;2.07;4.90;-2.29;-5.77;-0.54
-2.29;-1.20;4.03;-3.05;-0.87;-9.47
-2.29;5.23;-0.76;-10.35;0.76;0.22
7.41;2.07;-27.33;-11.11;-0.11;0.22
-0.65;-1.20;-0.76;-7.95;-4.14;-0.54
3.38;-1.20;-4.79;-7.08;3.16;-2.18
3.38;4.46;-11.22;-0.65;4.79;9.91
3.38;-1.20;-17.75;-1.42;5.55;-0.54
3.38;-20.47;-0.76;0.98;2.29;1.85
3.38;-2.83;-1.63;5.77;-12.20;1.85
3.38;5.23;1.63;36.37;7.19;1.85
1.74;-1.20;0.00;10.67;17.64;1.85
3.38;2.07;-0.76;9.04;16.01;1.85
2.61;3.70;16.99;9.04;4.79;1.85
3.38;5.23;-0.76;6.64;-10.56;0.98
0.98;2.07;0.00;0.11;-10.56;3.38
-0.65;2.07;6.43;0.98;-19.38;-0.54
-1.42;-4.36;4.03;5.01;-21.02;1.85
-5.44;3.70;1.63;-7.08;-23.41;0.22
-3.92;-2.83;-0.76;-11.11;-22.65;0.22
1.74;-0.33;3.27;-6.32;-9.80;0.22
-17.53;29.40;1.63;0.11;0.76;1.85
3.38;-1.96;-0.76;10.67;9.58;0.98
2.61;3.70;-2.40;1.74;13.61;-2.18
3.38;-1.20;-0.76;-3.92;13.61;1.85
2.61;5.23;-2.40;-0.65;15.25;0.22
-1.42;-1.96;-24.18;1.74;12.85;3.38
1.74;2.83;16.12;0.98;6.32;1.85
3.38;2.83;-0.76;6.64;14.37;0.22
2.61;1.20;-0.76;1.74;5.55;-2.18
-31.25;-3.59;-0.76;8.17;7.19;1.85
2.61;-3.59;0.87;11.43;2.29;-0.54
0.98;2.07;8.06;5.01;1.52;-2.18
-0.65;2.83;-0.76;-0.65;4.79;1.85
1.74;3.70;-0.76;-9.47;-4.14;1.85
3.38;2.07;4.90;-11.11;2.29;2.61
-0.65;-1.96;3.27;-20.80;21.67;2.61
9.04;-1.20;4.03;-10.35;5.55;4.25
-3.92;2.07;2.40;-2.29;5.55;0.98
-3.92;-1.20;4.90;-3.05;2.29;-0.54
0.98;-3.59;4.03;11.43;-5.77;-5.44
2.61;-1.20;9.69;0.98;-15.35;-5.44
3.38;-0.33;-1.63;0.11;-20.26;0.22
3.38;1.20;-3.16;6.64;-29.08;-3.81
3.38;-2.83;-0.76;5.77;-24.28;0.98
4.14;0.44;-1.63;-2.29;-18.62;13.94
2.61;1.20;-22.54;-3.05;-16.23;-3.05
3.38;3.70;-4.03;-7.08;-11.33;-9.47
3.38;32.67;-0.76;-2.29;-6.53;-7.84
1.74;2.83;-1.63;10.67;-16.99;-6.21
-3.05;4.46;-0.76;1.74;10.35;11.43
2.61;3.70;-0.76;-2.29;7.95;3.38
-2.29;3.70;1.63;5.77;0.76;1.85
-0.65;2.07;-0.76;3.38;1.52;5.88
2.61;4.46;7.30;1.74;4.79;2.61
-0.65;1.20;4.03;-2.29;6.32;-5.44
-3.92;2.83;1.63;-25.59;14.37;1.85
2.61;3.70;4.03;0.11;12.85;0.98
-3.92;-2.83;2.40;5.01;5.55;1.85
-4.68;2.07;2.40;-1.42;5.55;22.00
12.20;5.23;0.87;1.74;8.82;3.38
0.98;2.83;0.87;7.41;7.19;1.85
3.38;3.70;-1.63;3.38;9.58;1.85
1.74;4.46;-1.63;-0.65;6.32;0.98
3.38;1.20;0.00;1.74;4.79;0.22
5.01;2.07;-1.63;0.11;4.79;0.98
4.14;6.10;-0.76;-0.65;6.32;-0.54
-3.92;2.83;-4.79;5.01;3.92;-0.54
3.38;2.07;-0.76;-3.05;-2.50;-0.54
2.61;1.20;0.87;-1.42;2.29;17.10
3.38;-1.20;-0.76;-3.92;-10.56;0.22
0.98;7.73;2.40;-2.29;-0.87;-1.42
-4.68;-5.23;-0.76;-1.42;-13.83;-3.05
25.16;0.44;0.87;0.11;-10.56;1.85
-0.65;2.07;0.00;-1.42;-21.02;-3.05
-4.68;0.44;0.00;1.74;-9.80;1.85
1.74;-1.96;-0.76;-30.49;-5.77;-2.18
2.61;-1.20;0.87;-2.29;-12.96;1.85
-1.42;-1.20;-0.76;-7.95;-4.14;0.98
-27.22;5.23;0.00;3.38;0.76;0.98
1.74;6.86;-0.76;1.74;3.16;1.85
-0.65;-1.20;1.63;-0.65;4.79;-11.11
2.61;-4.36;3.27;-1.42;5.55;1.85
0.98;-1.20;-1.63;-2.29;29.73;1.85
5.01;1.20;-2.40;-2.29;13.61;0.98
-1.42;-1.20;-0.76;0.98;20.91;0.22
3.38;4.46;-0.76;-1.42;10.35;0.98
-6.32;11.76;0.87;3.38;24.07;0.98
11.43;6.10;0.00;19.49;11.98;-3.05
4.14;2.07;-0.76;10.67;-6.53;1.85
3.38;4.46;1.63;10.67;-21.02;1.85
-3.92;4.46;3.27;7.41;-26.68;0.22
4.14;2.07;0.00;17.10;-32.34;0.22
2.61;2.07;-0.76;-16.01;-33.98;-0.54
-1.42;2.83;4.90;-16.77;-33.11;0.98
-1.42;6.86;3.27;5.77;-21.02;-0.54
20.26;-1.96;1.63;-16.01;-4.14;-0.54
-4.68;5.23;-0.76;-8.71;5.55;22.00
-7.08;-5.99;4.03;5.77;12.85;0.22
-43.34;1.20;3.27;0.98;15.25;-2.18
-2.29;1.20;0.87;5.77;18.40;9.04
-4.68;-1.20;-4.79;8.17;13.61;0.98
-0.65;1.20;0.00;9.80;19.28;-3.05
0.11;14.16;-0.76;9.80;10.35;0.98
27.55;0.44;-0.76;9.80;9.58;-0.54
2.61;2.83;13.72;5.77;5.55;1.85
38.01;5.23;0.87;6.64;4.79;3.38
3.38;-1.96;-0.76;-12.74;4.79;1.85
3.38;-23.74;-3.16;1.74;4.79;1.85
3.38;0.44;-2.40;-0.65;7.19;1.85
8.17;6.10;-0.76;1.74;4.79;0.98
3.38;2.07;0.00;2.61;5.55;1.85
1.74;-1.96;1.63;2.61;-2.50;-5.44
36.37;1.20;0.87;-2.29;-6.53;1.85
0.98;6.10;-0.76;-2.29;-16.99;-2.18
-1.42;2.07;0.00;-3.05;-19.38;19.49
2.61;-1.96;4.90;-2.29;-25.05;1.85
-2.29;3.70;3.27;-1.42;-29.08;1.85
-7.08;4.46;1.63;-1.42;-0.87;0.98
-5.44;-1.20;-3.16;9.80;6.32;0.98
-3.92;-2.83;2.40;36.37;13.61;1.85
1.74;5.23;-3.16;10.67;16.88;1.85
11.43;3.70;-0.76;0.11;-9.80;-0.54
-0.65;4.46;-0.76;-6.32;-3.27;1.85
3.38;-3.59;-9.69;-10.35;7.19;0.22
3.38;-1.20;-1.63;-10.35;4.79;-5.44
3.38;-16.44;-0.76;-13.50;-2.50;4.25
1.74;2.07;-16.12;-3.05;-11.33;1.85
5.77;-1.96;-0.76;0.11;-16.23;4.25
0.98;6.86;-0.76;-20.80;-16.99;0.98
7.41;-1.20;1.63;5.01;-16.99;1.85
32.34;1.20;-0.76;5.01;-10.56;1.85
2.61;1.20;-0.76;6.64;-7.30;1.85
-10.35;2.83;-0.76;7.41;0.76;1.85
1.74;1.20;-0.76;6.64;-0.87;-0.54
2.61;1.20;0.87;2.61;4.79;-3.05
-7.08;-4.36;1.63;2.61;16.88;1.85
-20.80;29.40;3.27;-2.29;29.73;1.85
-6.32;-2.83;3.27;2.61;32.13;1.85
-5.44;1.20;2.40;-1.42;37.79;0.22
-1.42;-1.96;2.40;-6.32;9.58;4.25
2.61;-2.83;14.48;-7.08;-5.77;13.07
-2.29;6.10;-0.76;35.61;-21.89;1.85
2.61;5.23;-0.76;-2.29;-31.47;1.85
3.38;2.83;-0.76;-11.98;-38.77;0.22
3.38;2.07;-18.51;-9.47;-32.34;-5.44
1.74;-5.23;-9.69;-0.65;-16.99;0.98
3.38;-1.20;-0.76;1.74;-12.96;2.61
2.61;-23.74;0.00;-0.65;-2.50;1.85
1.74;2.07;-0.76;-6.32;7.19;1.85
3.38;2.83;-0.76;5.01;2.29;1.85
1.74;-4.36;-0.76;12.20;15.25;-0.54
3.38;2.83;3.27;3.38;19.28;1.85
3.38;2.07;-0.76;0.98;28.10;1.85
4.14;-2.83;0.87;0.98;41.82;0.98
1.74;1.20;0.00;3.38;28.10;-2.18
-1.42;0.44;1.63;1.74;15.25;1.85
-2.29;1.20;7.30;2.61;5.55;2.61
-6.32;-1.20;0.87;2.61;-2.50;-0.54
-3.92;0.44;3.27;0.98;-16.23;-2.18
-0.65;-1.20;-0.76;10.67;-25.05;1.85
-0.65;0.44;-0.76;-1.42;-25.05;0.98
3.38;3.70;0.00;-2.29;-45.19;0.22
5.77;0.44;0.00;-3.05;-16.23;0.22
3.38;-18.08;-4.03;-2.29;-5.77;0.98
5.01;27.01;-2.40;-27.22;0.76;0.22
3.38;-0.33;-0.76;-3.92;5.55;0.22
3.38;5.23;11.33;-2.29;6.32;-0.54
3.38;6.10;-1.63;-28.86;4.79;-1.42
-0.65;0.44;-0.76;3.38;3.92;-0.54
-1.42;3.70;-3.16;2.61;3.16;0.98
-1.42;-1.20;-0.76;3.38;3.92;-19.93
-0.65;3.70;-0.76;2.61;6.32;0.98
-3.92;1.20;0.87;3.38;2.29;4.25
1.74;2.07;0.87;3.38;16.01;1.85
3.38;-1.20;-4.03;5.77;15.25;2.61
-2.29;-5.99;4.90;9.80;15.25;4.25
13.83;-1.20;3.27;11.43;7.19;19.49
2.61;0.44;2.40;10.67;1.52;1.85
1.74;3.70;6.43;5.77;4.79;1.85
0.98;2.83;0.00;-1.42;-0.11;-21.56
-10.35;-19.71;-0.76;-28.86;-9.80;0.98
-4.68;3.70;-0.76;-12.74;-9.80;1.85
24.28;2.07;-2.40;-12.74;-20.26;-3.05
2.61;1.20;-5.66;-15.14;-33.11;-10.24
-22.43;2.07;-1.63;-14.37;-25.05;-6.21
29.19;0.44;-4.03;-11.11;-21.89;-2.18
1.74;0.44;-0.76;-7.08;-8.93;-0.54
2.61;-0.33;-3.16;-2.29;-2.50;1.85
-22.43;2.07;0.00;-1.42;-0.87;0.98
-1.42;0.44;-1.63;5.01;0.76;-3.05
3.38;0.44;-15.25;5.01;3.92;-0.54
0.98;-0.33;-0.76;5.77;4.79;-0.54
3.38;-1.20;3.27;4.14;0.76;-1.42
2.61;-19.71;0.87;16.23;2.29;1.85
3.38;1.20;6.43;4.14;4.79;1.85
-1.42;2.07;8.06;1.74;8.82;3.38
-5.44;2.07;4.90;33.98;29.73;4.25
-0.65;-1.20;1.63;-3.05;6.32;-0.54
3.38;2.07;4.90;6.64;7.95;0.22
-1.42;3.70;0.00;0.98;8.82;-15.90
2.61;0.44;1.63;13.07;15.25;7.41
-0.65;0.44;-3.16;14.70;13.61;1.85
-13.50;0.44;0.87;10.67;9.58;1.85
-1.42;2.83;-9.69;1.74;9.58;1.85
3.38;-1.20;0.87;-2.29;8.82;1.85
2.61;-2.83;0.00;-9.47;30.49;0.22
0.11;5.23;-1.63;-11.11;4.79;-2.18
4.14;-4.36;0.87;-2.29;3.16;-0.54
3.38;31.04;-0.76;8.17;-8.17;-0.54
-14.37;-5.23;-0.76;-1.42;-12.20;-23.96
2.61;-1.20;-0.76;-11.11;-12.20;0.98
2.61;-2.83;1.63;-15.14;-11.33;-1.42
0.98;-30.93;-0.76;-13.50;-12.96;-3.05
0.98;-5.99;-0.76;-7.08;-5.77;10.67
0.11;3.70;-0.76;-7.95;-0.87;-0.54
0.11;-8.39;1.63;-6.32;-4.14;-3.81
-3.92;-25.37;1.63;-1.42;-8.17;-2.18
-5.44;-0.33;4.90;13.07;-10.56;1.85
1.74;10.13;2.40;24.28;3.92;-2.18
-5.44;-1.20;-0.76;6.64;8.82;-3.05
-4.68;1.20;0.00;8.17;15.25;-0.54
-36.15;1.20;-4.79;0.11;7.19;0.98
1.74;-22.98;-1.63;1.74;4.79;-3.05
0.98;21.34;-3.16;-2.29;0.76;1.85
3.38;6.10;-1.63;2.61;-2.50;4.25
-27.22;0.44;-0.76;-1.42;-10.56;-0.54
3.38;1.20;-1.63;0.11;-38.77;1.85
0.98;3.70;-0.76;1.74;-21.02;4.25
13.07;-4.36;3.27;-1.42;3.92;1.85
3.38;1.20;-0.76;0.11;-4.14;0.98
-0.65;1.20;0.00;3.38;-4.14;-2.18
0.11;-1.20;-0.76;2.61;-2.50;-0.54
0.11;2.07;-0.76;3.38;0.76;-1.42
2.61;3.70;3.27;-2.29;-0.87;-2.18
-1.42;0.44;-2.40;-2.29;4.79;-2.18
-5.44;1.20;3.27;2.61;10.35;-6.21
-8.71;26.24;1.63;4.14;4.79;4.25
-7.08;-5.23;3.27;8.17;20.04;0.98
-1.42;6.10;6.43;1.74;13.61;0.98
0.98;6.86;4.03;1.74;12.85;-3.05
2.61;-26.90;-0.76;-0.65;7.19;2.61
0.11;6.10;-0.76;-2.29;5.55;1.85
4.14;4.46;9.69;-2.29;-1.74;1.85
5.77;-5.99;-0.76;1.74;-6.53;-0.54
3.38;-5.23;0.00;-2.29;-10.56;1.85
2.61;3.70;-0.76;-0.65;-4.14;-0.54
3.38;0.44;-1.63;0.11;4.79;-3.05
-5.44;1.20;-1.63;-0.65;-21.02;-1.42
3.38;5.23;16.12;-9.47;4.79;7.41
3.38;0.44;-0.76;-9.47;4.79;-2.18
-2.29;-1.96;0.00;-2.29;0.76;-1.42
-1.42;-5.23;-2.40;-1.42;-3.27;-1.42
-3.92;-1.96;-0.76;-3.05;-3.27;-0.54
-1.42;-5.99;0.87;2.61;-4.14;1.85
0.98;1.20;0.00;-0.65;-12.96;0.22
-5.44;-3.59;0.87;-2.29;-18.62;-2.18
-7.08;-1.20;-0.76;-0.65;-15.35;0.98
-7.08;-1.96;3.27;2.61;-16.23;1.85
-7.08;0.44;1.63;5.77;-16.99;0.98
-0.65;-1.20;-0.76;33.21;-16.99;-1.42
0.11;2.07;0.87;-1.42;-7.30;0.98
3.38;-1.20;-2.40;0.11;3.16;1.85
1.74;2.07;0.00;-0.65;16.88;-3.05
5.01;6.10;-0.76;-3.05;15.25;0.98
3.38;3.70;-4.79;-3.92;21.67;1.85
3.38;2.83;-0.76;-2.29;22.43;1.85
3.38;31.04;0.00;18.73;21.67;0.98
-0.65;-25.37;-0.76;10.67;23.30;5.01
-0.65;-1.20;1.63;10.67;21.67;1.85
-0.65;-23.74;-0.76;7.41;18.40;1.85
1.74;-1.96;-0.76;6.64;24.94;0.98
3.38;4.46;-0.76;-0.65;3.16;1.85
0.98;4.46;0.00;0.11;-0.11;-2.18
-3.92;2.07;8.06;-2.29;-10.56;-3.81
-0.65;-1.96;-4.03;-3.05;-15.35;-3.05
1.74;2.83;-0.76;-2.29;-22.65;1.85
-10.35;-1.96;1.63;0.98;-31.47;-3.05
-33.65;31.91;0.87;0.11;-46.06;0.22
-1.42;4.46;-3.16;-5.44;-23.41;-6.21
-4.68;2.07;1.63;-6.32;-20.26;-1.42
-1.42;3.70;2.40;6.64;-5.77;-2.18
-0.65;-5.23;-0.76;-2.29;4.79;-2.18
2.61;6.10;-4.03;-2.29;13.61;1.85
1.74;-5.23;-5.66;9.04;17.64;0.98
3.38;2.07;-0.76;-25.59;16.88;1.85
1.74;0.44;-0.76;-0.65;18.40;1.85
7.41;-2.83;-2.40;22.76;17.64;0.98
1.74;1.20;-0.76;9.04;16.01;3.38
0.98;1.20;0.00;0.11;11.98;-4.57
3.38;4.46;1.63;9.80;18.40;-2.18
2.61;-1.20;-0.76;3.38;1.52;0.98
0.11;3.70;-2.40;10.67;4.79;1.85
2.61;-1.20;-0.76;14.70;6.32;26.79
2.61;14.92;2.40;10.67;8.82;1.85
0.98;3.70;-0.76;1.74;16.88;7.41
2.61;3.70;4.03;-10.35;16.88;3.38
-5.44;-0.33;3.27;-39.31;10.35;1.85
-1.42;-5.23;3.27;-3.05;2.29;0.98
-1.42;-1.96;1.63;-9.47;-12.20;-9.47
-8.71;-2.83;-0.76;-7.95;-25.05;-2.18
0.98;2.07;1.63;-4.68;-22.65;-2.18
-1.42;-1.20;1.63;-11.11;-32.34;-21.56
7.41;3.70;-0.76;-9.47;-28.31;-0.54
-1.42;-10.02;-3.16;-7.08;-21.02;-2.18
3.38;-14.92;-1.63;14.70;-11.33;-1.42
3.38;1.20;-16.12;2.61;1.52;-15.14
-3.92;-1.20;-0.76;0.98;4.79;-2.18
3.38;-6.86;0.00;1.74;4.79;0.22
-0.65;1.20;-0.76;-2.29;6.32;0.98
2.61;2.07;-0.76;-11.98;3.92;-1.42
3.38;0.44;-1.63;1.74;3.92;0.22
-2.29;-4.36;0.00;10.67;0.76;-0.54
1.74;4.46;-0.76;0.11;4.79;1.85
1.74;-18.95;1.63;-23.20;4.79;4.25
-1.42;4.46;0.00;8.17;6.32;1.85
1.74;-3.59;4.03;5.77;16.01;-0.54
-0.65;-1.96;-20.91;0.11;22.43;-3.05
-4.68;-1.96;3.27;0.11;19.28;1.85
-4.68;-29.40;1.63;1.74;5.55;2.61
18.73;0.44;3.27;2.61;3.92;2.61
1.74;-1.96;0.00;0.11;0.76;1.85
0.98;-4.36;1.63;2.61;-2.50;0.22
2.61;0.44;14.48;0.98;-10.56;0.22
-7.95;0.44;-1.63;-3.92;-21.02;0.22
-0.65;5.23;-0.76;-1.42;-4.90;-0.54
-27.22;0.44;-0.76;-6.32;-6.53;0.22
2.61;2.07;-6.43;-1.42;-3.27;0.22
5.01;-1.96;-0.76;-2.29;6.32;-2.18
1.74;4.46;-0.76;-2.29;3.16;-11.11
-1.42;-24.50;-0.76;0.11;-4.14;-0.54
3.38;-2.83;2.40;3.38;3.92;1.85
3.38;2.07;-0.76;5.01;7.19;0.22
3.38;6.10;0.87;-4.68;3.92;-6.21
0.98;4.46;-0.76;8.17;-0.11;1.85
0.98;3.70;4.03;10.67;1.52;0.98
17.86;2.83;-20.15;6.64;-6.53;0.98
-0.65;-2.83;1.63;9.80;-7.30;1.85
-1.42;-1.96;1.63;3.38;10.35;-21.56
-3.92;-2.83;0.87;19.49;18.40;1.85
-5.44;-0.33;3.27;-2.29;16.01;4.25
2.61;2.07;-0.76;-2.29;16.88;1.85
3.38;-1.96;-0.76;-3.05;4.79;1.85
-22.43;2.07;-0.76;-3.92;5.55;-1.42
-0.65;-1.20;-0.76;-24.07;-2.50;-3.05
2.61;1.20;-5.66;-8.71;-12.20;-2.18
-0.65;-2.83;-3.16;-10.35;-21.02;-6.21
-2.29;-2.83;-1.63;-4.68;-28.31;-2.18
0.98;2.07;-1.63;-3.92;-21.02;-0.54
0.11;-2.83;-0.76;-2.29;-38.01;-8.60
12.20;2.07;-0.76;0.11;-42.80;-0.54
-2.29;2.07;-10.45;5.77;-8.17;-0.54
-0.65;0.44;-0.76;1.74;4.79;1.85
3.38;0.44;33.11;6.64;13.61;-2.18
0.98;2.07;0.00;8.17;14.37;-15.90
-1.42;-1.96;-3.16;6.64;16.01;1.85
-2.29;2.07;8.06;2.61;15.25;7.41
-31.25;3.70;8.93;7.41;7.19;4.25
-0.65;6.10;4.90;11.43;31.36;4.25
-0.65;11.76;4.03;31.58;2.29;4.25
1.74;-6.86;4.03;-20.04;4.79;0.22
-1.42;5.23;0.00;5.01;0.76;-3.05
2.61;6.10;-16.12;-3.92;4.79;1.85
25.16;4.46;-0.76;-3.92;8.82;1.85
3.38;4.46;-0.76;-6.32;3.16;0.22
2.61;14.16;-0.76;-4.68;24.94;0.98
3.38;-1.96;-1.63;-4.68;17.64;22.76
0.98;-14.92;-0.76;-3.05;7.19;1.85
41.27;3.70;-0.76;-2.29;0.76;0.98
3.38;-11.65;-0.76;0.11;-10.56;-2.18
2.61;-1.96;-0.76;1.74;-8.93;0.22
1.74;3.70;-11.22;3.38;-21.89;12.31
-0.65;3.70;-0.76;3.38;-21.02;1.85
1.74;3.70;-0.76;0.11;-10.56;-21.56
0.98;-4.36;0.00;2.61;-7.30;1.85
3.38;1.20;8.06;-1.42;-2.50;0.98
-3.92;-4.36;-1.63;1.74;3.16;0.98
-7.08;1.20;4.03;-0.65;4.79;-2.18
-3.92;0.44;0.87;-3.92;1.52;-3.05
-29.62;-1.20;3.27;-1.42;3.92;1.85
-4.68;-4.36;-0.76;-1.42;2.29;-5.44
-3.92;-6.86;0.00;-2.29;-14.59;-5.44
-1.42;1.20;-1.63;-0.65;2.29;-2.18
-0.65;-1.96;-4.79;-24.07;6.32;1.85
2.61;-2.83;-2.40;13.07;4.79;-0.54
0.98;-19.71;-0.76;-3.05;4.79;-2.18
2.61;1.20;-3.16;-4.68;4.79;-7.08
3.38;-1.20;-8.06;-5.44;3.92;1.85
3.38;27.88;-0.76;3.38;-0.11;-0.54
4.14;-3.59;-0.76;1.74;2.29;-0.54
3.38;-1.20;0.00;0.11;-5.77;1.85
0.98;2.07;-0.76;5.77;-6.53;-2.18
-10.35;5.23;1.63;-0.65;-6.53;0.98
11.43;-1.20;2.40;17.86;-3.27;1.85
3.38;5.23;3.27;22.76;16.01;-3.81
3.38;4.46;-0.76;9.80;5.55;9.91
-23.20;-4.36;0.87;0.98;6.32;1.85
-4.68;2.07;7.30;-5.44;4.79;1.85
-3.92;0.44;8.93;-4.68;-0.87;2.61
-0.65;-1.20;-10.45;0.11;7.19;4.25
-1.42;5.23;0.87;-3.92;3.16;0.98
-26.46;2.83;-0.76;-9.47;1.52;-0.54
2.61;2.07;-0.76;-10.35;11.98;1.85
-15.14;31.91;-0.76;-14.37;2.29;1.85
5.01;2.07;-8.82;-13.50;-2.50;-3.05
2.61;-1.96;-0.76;-15.14;4.79;1.85
0.98;-1.96;-0.76;-14.37;10.35;2.61
38.01;0.44;-0.76;9.04;17.64;-0.54
-1.42;3.70;-0.76;9.04;23.30;0.22
2.61;-2.83;0.87;3.38;30.49;-0.54
3.38;18.19;0.87;10.67;23.30;-2.18
0.11;1.20;3.27;10.67;13.61;0.22
3.38;-1.96;1.63;9.80;0.76;-0.54
2.61;-5.23;-1.63;5.01;-23.41;-6.21
9.04;5.23;0.87;3.38;-37.13;1.85
-1.42;2.07;17.75;1.74;-51.62;1.85
0.11;27.88;2.40;-3.92;-44.43;1.85
-29.62;21.34;0.00;-2.29;-28.31;1.85
-0.65;-4.36;12.09;-2.29;-12.96;-0.54
0.98;1.20;1.63;-3.05;2.29;0.22
-3.92;2.07;1.63;-3.92;16.01;0.22
-11.98;-1.20;1.63;-3.05;17.64;1.85
2.61;3.70;-0.76;-3.05;18.40;7.41
-0.65;3.70;0.00;10.67;19.28;-2.18
3.38;1.20;-0.76;-7.08;-6.53;-0.54
2.61;-2.83;0.00;0.11;7.19;0.22
3.38;2.07;-3.16;5.77;8.82;-5.44
3.38;-26.14;-0.76;3.38;-6.53;-6.21
-0.65;1.20;-0.76;3.38;-3.27;1.85
2.61;5.23;2.40;2.61;-5.77;1.85
-0.65;-1.20;14.48;2.61;-9.80;0.98
2.61;2.07;-0.76;-15.14;-13.83;0.98
-0.65;1.20;0.87;4.14;-0.11;-1.42
3.38;1.20;1.63;2.61;16.01;1.85
0.11;5.23;-0.76;0.98;12.85;0.22
-2.29;11.76;-0.76;0.11;13.61;-0.54
-0.65;1.20;-0.76;-19.17;6.32;1.85
-0.65;5.23;1.63;-2.29;5.55;1.85
-3.92;0.44;1.63;-3.05;0.76;1.85
0.11;3.70;4.90;-4.68;-7.30;5.01
-5.44;2.07;-15.25;-3.92;-16.23;2.61
-0.65;5.23;-0.76;-3.05;-38.01;1.85
2.61;1.20;0.00;-3.92;-15.35;1.85
2.61;-1.96;-0.76;5.77;6.32;0.22
-1.42;-1.20;12.09;1.74;4.79;-5.44
3.38;-6.86;-4.79;4.14;16.01;1.85
-2.29;1.20;-1.63;1.74;17.64;-0.54
-23.20;-6.86;-1.63;6.64;20.04;1.85
3.38;-2.83;-0.76;10.67;15.25;1.85
0.11;5.23;-0.76;8.17;8.82;0.98
2.61;-5.23;0.00;-3.05;3.92;1.85
-1.42;2.07;-0.76;-7.08;-4.14;2.61
0.98;1.20;0.00;-2.29;-12.96;1.85
2.61;1.20;1.63;-8.71;-12.20;1.85
3.38;6.10;1.63;-10.35;16.88;1.85
-7.95;-19.71;1.63;-13.50;-0.11;0.22
0.98;2.07;2.40;-25.59;7.19;1.85
-2.29;2.83;4.03;-0.65;16.88;2.61
-1.42;3.70;3.27;5.01;17.64;-0.54
-1.42;0.44;12.96;3.38;11.22;-8.60
0.98;-4.36;0.00;-0.65;7.19;1.85
-0.65;2.07;-5.66;1.74;-0.11;0.22
-20.04;-5.99;-8.06;2.61;-7.30;1.85
2.61;2.07;-1.63;-3.05;-19.38;-2.18
3.38;24.61;-3.16;-7.08;-23.41;0.98
3.38;2.83;-0.76;-7.95;-23.41;-7.08
3.38;1.20;-0.76;-32.13;-21.02;1.85
-0.65;27.88;0.00;-4.68;-15.35;-2.18
1.74;2.07;-0.76;-2.29;-8.93;-10.24
3.38;-1.20;-0.76;-3.92;-5.77;-2.18
2.61;-1.20;0.00;0.11;3.92;-2.18
2.61;-2.83;0.00;0.11;10.35;0.98
-0.65;3.70;9.69;3.38;8.82;1.85
2.61;-1.20;-1.63;5.01;5.55;1.85
0.98;-6.86;-0.76;3.38;4.79;1.85
-1.42;2.07;-0.76;2.61;5.55;3.38
3.38;1.20;-5.66;3.38;8.82;4.25
-1.42;-21.34;2.40;9.04;8.82;2.61
-4.68;-2.83;4.03;6.64;4.79;3.38
-0.65;2.07;3.27;1.74;9.58;3.38
-25.59;-6.86;1.63;3.38;15.25;1.85
0.98;-3.59;-0.76;-0.65;11.98;4.25
1.74;1.20;0.00;-2.29;9.58;3.38
3.38;18.19;-0.76;0.11;6.32;1.85
-0.65;4.46;-0.76;-1.42;3.16;1.85
3.38;-1.20;-1.63;26.79;-7.30;-2.18
3.38;0.44;-1.63;-2.29;-8.17;-0.54
0.98;5.23;0.87;-0.65;-8.17;-3.81
3.38;4.46;-2.40;-2.29;-16.23;-3.05
5.01;-14.05;-0.76;-3.05;-16.99;2.61
3.38;0.44;0.00;-3.05;-6.53;3.38
-0.65;-0.33;-0.76;0.11;-3.27;0.98
-28.10;-1.20;-0.76;-2.29;5.55;-2.18
0.98;-1.96;-8.82;2.61;4.79;-11.11
1.74;0.44;0.87;-1.42;6.32;0.98
18.73;0.44;3.27;-0.65;3.16;-1.42
-0.65;-1.96;1.63;-0.65;3.16;1.85
-0.65;-10.89;1.63;-1.42;0.76;1.85
-6.32;2.83;12.96;-2.29;4.79;0.22
-3.92;-1.20;0.87;-2.29;0.76;-15.14
-0.65;-1.20;15.35;5.77;3.92;1.85
1.74;2.07;0.87;21.13;7.19;-15.14
3.38;6.10;0.00;17.86;12.85;1.85
2.61;1.20;-0.76;2.61;24.94;-0.54
-22.43;0.44;0.87;-15.14;4.79;-0.54
0.98;1.20;-1.63;-20.80;-5.77;-6.21
3.38;-5.99;13.72;-19.17;-9.80;26.03
2.61;-1.96;-0.76;-0.65;-12.96;1.85
3.38;4.46;-0.76;-15.14;-12.96;1.85
4.14;-6.86;-0.76;-2.29;-10.56;17.10
6.64;4.46;-0.76;-7.95;-2.50;-3.05
0.98;4.46;-0.76;-0.65;4.79;-5.44
1.74;-1.20;-8.06;6.64;4.79;0.98
-0.65;1.20;0.00;10.67;3.92;-3.05
-1.42;1.20;0.00;18.73;-4.90;1.85
-27.22;3.70;4.03;3.38;-8.17;1.85
3.38;1.20;2.40;5.77;-16.23;5.88
0.98;1.20;4.90;3.38;-8.17;0.22
0.98;-1.20;4.90;2.61;-4.14;-1.42
-3.92;-1.96;4.90;-3.05;5.55;0.98
0.98;0.44;0.87;-1.42;17.64;1.85
2.61;-1.20;-0.76;0.11;19.28;0.98
-1.42;0.44;1.63;-3.92;16.88;-24.72
-10.35;-0.33;-3.16;-4.68;7.95;-0.54
-5.44;3.70;-1.63;-3.05;3.92;-3.05
-4.68;3.70;-1.63;22.76;-4.14;-2.18
1.74;-3.59;2.40;-3.05;-6.53;-3.81
3.38;3.70;-0.76;-2.29;-4.14;1.85
3.38;6.10;-0.76;-3.05;-2.50;1.85
1.74;1.20;0.00;0.11;-9.80;0.98
0.98;-25.37;-2.40;-1.42;-2.50;1.85
2.61;2.07;0.87;2.61;-3.27;1.85
3.38;1.20;-0.76;2.61;-4.14;1.85
-2.29;0.44;1.63;5.77;-5.77;0.98
-0.65;1.20;3.27;2.61;-2.50;5.88
29.19;4.46;4.03;5.77;4.79;1.85
1.74;-4.36;4.03;-26.46;6.32;1.85
-15.14;0.44;7.30;5.01;9.58;25.16
-2.29;0.44;4.90;1.74;10.35;3.38
-7.95;1.20;0.87;1.74;8.82;2.61
-0.65;2.07;-14.48;-1.42;11.22;2.61
2.61;-1.20;-0.76;-6.32;6.32;-3.05
-2.29;-1.20;-0.76;-7.08;7.19;1.85
1.74;-23.74;-0.76;0.98;3.16;0.22
3.38;-22.11;-0.76;6.64;-2.50;3.38
0.98;2.07;-0.76;1.74;-11.33;-3.05
1.74;2.07;4.03;-2.29;-15.35;-0.54
3.38;2.07;-1.63;-7.08;-16.99;0.22
2.61;1.20;0.00;-7.95;-15.35;-1.42
2.61;-5.23;-0.76;-4.68;-9.80;9.04
-5.44;-5.23;-0.76;-4.68;0.76;-0.54
2.61;5.23;-0.76;-1.42;2.29;-3.81
3.38;4.46;2.40;-1.42;4.79;-1.42
0.98;2.07;0.00;17.86;-16.99;1.85
2.61;-0.33;2.40;0.98;9.58;1.85
1.74;2.07;1.63;2.61;9.58;1.85
1.74;-2.83;4.03;2.61;5.55;1.85
0.98;-4.36;0.00;2.61;4.79;5.01
-4.68;-1.20;4.03;2.61;-0.87;1.85
-5.44;2.07;4.90;9.04;-3.27;1.85
-0.65;1.20;3.27;-1.42;-4.14;17.97
-5.44;5.23;1.63;2.61;-12.20;-2.18
0.98;0.44;-0.76;13.07;-3.27;-3.05
-0.65;5.23;-2.40;-2.29;-23.41;0.22
3.38;-1.20;-0.76;2.61;-0.11;-2.18
5.01;-6.86;-0.76;-3.92;-2.50;-25.59
7.41;2.07;-3.16;-2.29;3.16;-5.44
3.38;2.07;-1.63;-0.65;4.79;0.22
3.38;1.20;-2.40;0.11;30.49;0.98
-2.29;3.70;3.27;-0.65;4.79;-6.21
3.38;3.70;-0.76;-0.65;0.76;1.85
3.38;6.86;0.00;3.38;-0.87;1.85
2.61;2.07;-0.76;-1.42;-2.50;-2.18
5.77;-1.96;0.00;-0.65;-0.11;1.85
0.98;2.07;-1.63;16.23;-6.53;1.85
0.98;-1.96;-3.16;2.61;6.32;0.98
0.98;4.46;1.63;18.73;4.79;1.85
29.19;-1.96;7.30;-1.42;-0.11;1.85
-0.65;2.07;4.90;3.38;8.82;-12.63
-7.08;-1.96;4.90;3.38;12.85;6.64
-0.65;-1.20;4.90;-7.95;14.37;0.22
-1.42;-5.99;3.27;0.98;12.85;0.98
-2.29;2.07;-0.76;-4.68;7.19;1.85
3.38;-9.26;0.00;-11.98;-0.87;1.85
3.38;6.10;-3.16;-0.65;-15.35;0.22
1.74;0.44;-0.76;-2.29;-12.20;-3.05
3.38;-9.26;-0.76;-2.29;-12.96;-1.42
3.38;1.20;-5.66;3.38;-8.93;-3.05
0.98;2.83;-2.40;-0.65;-4.90;-2.18
3.38;1.20;-0.76;18.73;-3.27;0.98
3.38;1.20;0.87;5.01;-3.27;-3.05
12.20;-5.99;-0.76;1.74;-3.27;1.85
3.38;-34.96;-0.76;1.74;-6.53;1.85
17.10;-1.20;-0.76;0.11;-6.53;-3.05
1.74;-2.83;0.87;-2.29;-16.23;0.22
2.61;3.70;1.63;-1.42;-13.83;-1.42
-1.42;0.44;4.03;1.74;-10.56;-1.42
2.61;-2.83;0.00;-1.42;-3.27;1.85
0.11;-2.83;0.87;10.67;15.25;1.85
-8.71;-1.20;-0.76;-0.65;1.52;-13.50
0.98;1.20;-0.76;-3.05;5.55;0.98
-3.92;-4.36;2.40;-5.44;14.37;0.98
-4.68;-3.59;-0.76;-2.29;14.37;0.98
-1.42;29.40;-0.76;24.28;21.67;0.98
1.74;-20.47;-0.76;10.67;20.04;1.85
3.38;5.23;-0.76;-16.77;21.67;3.38
3.38;-0.33;-0.76;5.77;24.07;4.25
5.01;-1.96;-5.66;-7.08;18.40;0.98
7.41;-1.20;-0.76;-15.14;4.79;-2.18
1.74;6.10;1.63;-17.53;-7.30;1.85
3.38;8.49;2.40;-15.14;-26.68;1.85
3.38;2.07;0.87;-38.55;-29.08;0.22
3.38;-3.59;-1.63;-6.32;-30.71;1.85
0.98;4.46;-0.76;2.61;-42.04;-5.44
2.61;14.92;-0.76;6.64;-28.31;1.85
3.38;-5.23;0.00;8.17;-10.56;-0.54
-3.92;3.70;3.27;19.49;3.16;1.85
-5.44;-1.20;3.27;19.49;-10.56;0.98
0.98;-5.23;3.27;12.20;17.64;0.98
-8.71;31.04;7.30;1.74;11.98;0.22
-0.65;-1.96;3.27;-2.29;-0.11;1.85
3.38;6.10;-12.85;-11.11;11.98;2.61
1.74;2.83;25.05;-14.37;13.61;-8.60
3.38;6.10;17.75;-14.37;10.35;1.85
2.61;0.44;0.00;-6.32;9.58;1.85
3.38;5.23;-4.03;29.19;3.92;0.98
5.01;0.44;-0.76;-2.29;5.55;-7.08
3.38;-2.83;-1.63;10.67;0.76;-3.05
2.61;0.44;-1.63;-19.17;-2.50;-0.54
3.38;-2.83;12.96;12.20;0.76;2.61
2.61;-4.36;1.63;11.43;4.79;7.41
2.61;2.07;0.00;6.64;7.19;3.38
1.74;4.46;-0.76;6.64;5.55;-0.54
-0.65;2.07;0.87;29.19;4.79;1.85
2.61;3.70;-0.76;0.11;3.92;1.85
3.38;2.07;-0.76;0.11;-3.27;-1.42
-3.92;-2.83;2.40;-2.29;-8.93;2.61
-3.92;2.07;6.43;3.38;-5.77;0.22
-3.92;0.44;3.27;3.38;-4.90;-23.20
0.98;2.07;2.40;2.61;0.76;1.85
-3.92;-2.83;-2.40;-1.42;5.55;1.85
-3.92;3.70;1.63;-5.44;13.61;1.85
-11.11;2.83;-0.76;-3.05;11.98;-4.57
-0.65;0.44;0.00;-10.35;4.79;0.22
-5.44;-22.11;0.00;-20.04;-4.90;1.85
1.74;0.44;-9.69;-10.35;-16.23;0.22
0.98;3.70;-4.79;-1.42;-21.02;0.98
2.61;1.20;-0.76;0.98;-29.95;-3.81
-1.42;2.83;-1.63;-3.92;-30.71;0.98
-0.65;0.44;-0.76;5.01;-22.65;-2.18
3.38;-1.20;0.87;1.74;-16.99;0.98
0.11;-2.83;0.00;26.79;-4.14;-8.60
-0.65;-4.36;-0.76;1.74;16.01;-2.18
