12.31;-7.62;-22.32;4.03;-8.28;-9.91
3.38;-4.36;-11.00;-1.63;-14.70;-9.04
-0.65;-2.83;-2.18;-13.72;-17.97;3.05
-5.44;2.83;7.51;-24.18;-34.09;-1.85
-11.87;6.10;21.24;-38.66;-9.91;10.24
-43.34;10.13;30.06;-46.72;-2.61;3.05
-37.68;14.16;35.72;-46.72;1.42;1.42
-21.56;11.76;34.96;-40.29;7.08;28.75
-16.77;11.76;30.93;-39.53;31.25;21.56
-13.50;9.26;54.23;-39.53;36.05;26.35
-10.35;23.85;33.32;-30.60;29.62;27.99
5.01;6.86;20.36;-9.69;-9.04;7.84
0.98;6.10;5.12;3.27;-2.61;-12.31
3.38;3.70;-4.57;16.12;-25.16;-13.07
11.43;-4.36;-18.30;29.84;-42.14;-22.76
13.07;-10.89;-23.96;37.90;-59.79;-22.76
12.31;-4.36;-27.99;36.26;-70.35;-55.76
16.33;-5.99;-36.05;41.93;-59.79;-9.04
8.28;-12.41;-38.44;41.93;-32.45;-3.48
15.46;-12.41;-41.60;40.29;5.44;-22.76
24.39;-15.68;-39.97;32.23;31.25;-18.73
7.41;-6.86;-27.12;12.09;39.31;-9.04
-0.65;-4.36;-11.87;-9.69;30.38;4.57
-4.68;-5.99;13.94;-16.88;21.56;11.87
-18.30;6.10;22.87;-25.81;10.24;16.66
-21.56;7.73;26.90;-33.87;5.44;19.17
-13.50;10.13;34.09;-33.87;5.44;7.84
-18.30;6.10;40.51;-36.26;5.44;23.20
-16.77;9.26;36.48;-39.53;9.47;18.30
-12.74;8.49;36.48;-37.03;18.30;27.22
-15.14;6.86;40.51;-27.44;20.69;19.93
-8.71;6.10;22.87;-14.48;28.75;8.60
-2.29;0.44;10.78;-33.00;5.44;-4.25
3.38;-1.20;-1.31;8.82;-8.28;-12.31
12.31;-10.02;-19.06;49.99;-27.55;-13.07
4.25;-8.39;-23.96;28.97;-19.49;-22.76
16.33;-6.86;-27.12;33.87;-19.49;-17.10
8.28;-14.92;-34.41;41.06;-16.33;5.44
18.73;-6.86;-39.97;37.90;-6.64;4.57
17.10;-8.39;-40.84;40.29;3.81;-7.51
16.33;-12.41;-40.84;36.26;9.47;5.44
3.38;-1.96;-25.48;7.30;15.90;-10.67
19.49;-6.86;-13.39;-8.06;12.63;-2.61
-1.42;4.46;-0.54;-18.51;7.08;-17.97
-15.14;8.49;21.24;-35.50;22.32;3.05
-18.30;7.73;25.26;-38.66;5.44;7.84
-6.32;11.76;37.35;-31.47;3.81;3.05
-18.30;16.55;38.11;-41.06;3.81;17.53
-10.35;7.73;30.93;-24.94;11.11;23.20
-10.35;6.10;37.35;-35.50;31.25;-4.25
-19.93;10.89;33.32;-33.87;6.21;28.75
-9.47;6.10;25.26;-9.69;-0.98;7.08
2.61;2.07;9.91;4.79;-9.04;-10.67
7.41;0.44;-2.18;45.08;-12.31;-9.91
10.67;-5.23;-23.96;26.57;-9.04;-10.67
3.38;-8.39;-26.35;33.00;-9.91;-11.54
15.46;-6.86;-30.38;36.26;14.27;-18.73
3.38;-9.26;-33.54;42.69;15.14;3.81
28.42;-12.41;-39.20;37.90;16.66;3.05
19.49;-9.26;-60.11;49.99;8.60;-17.97
16.33;-10.89;-38.44;33.87;7.08;-15.57
5.77;-7.62;-25.48;17.75;2.18;-10.67
3.38;-1.96;-2.18;-6.43;-26.79;0.54
-5.44;4.46;4.25;-21.78;-32.45;7.08
-10.35;3.70;23.63;-37.90;-30.06;3.05
-15.14;6.86;27.66;-14.48;-26.79;5.44
-18.30;6.10;36.48;-46.72;5.44;-0.98
-20.80;11.76;38.11;-20.91;-5.01;14.27
-22.32;11.76;35.72;-22.54;5.44;15.14
-17.53;7.73;35.72;-39.53;5.44;23.96
-11.87;15.79;34.09;-35.50;12.63;21.56
-11.11;8.49;16.33;-13.72;17.53;6.21
-0.65;6.10;-2.18;1.63;13.50;28.75
7.41;-24.50;-1.31;23.30;5.44;-13.94
29.95;-2.83;-15.03;29.84;2.18;-17.10
12.31;-7.62;-26.35;35.39;5.44;-15.57
15.46;-6.86;-27.12;43.45;3.81;-12.31
17.10;-10.02;-37.57;41.93;5.44;16.66
28.42;-10.89;-37.57;43.45;4.57;0.54
21.13;-14.92;-39.20;37.90;4.57;-9.04
17.10;-18.08;-44.00;30.60;-10.67;-8.28
5.01;-9.26;-27.12;15.35;3.81;-20.36
-8.71;-4.36;-14.27;5.66;3.05;13.50
-7.84;-5.23;25.26;-8.82;5.44;2.18
-9.47;6.10;22.00;-36.26;4.57;11.87
-21.56;5.23;26.90;-41.06;6.21;10.24
-18.30;8.49;32.45;-40.29;3.81;6.21
-21.56;6.10;42.14;-39.53;7.84;32.78
-19.93;10.13;46.17;-37.03;4.57;13.50
-45.74;8.49;36.48;-39.53;1.42;24.72
-17.53;10.13;35.72;-37.90;-1.85;19.17
-8.71;8.49;25.26;-14.48;-5.88;4.57
-8.71;6.10;5.12;3.27;-14.70;-5.88
5.01;-1.96;-3.81;20.15;-10.67;-15.57
42.04;-24.50;-18.30;30.60;-8.28;-21.13
17.86;-9.26;-26.35;41.06;-5.01;-20.36
15.46;-10.89;-27.99;37.03;-3.48;-9.91
15.46;-8.39;-28.75;45.08;7.08;2.18
-12.74;-11.65;-37.57;42.69;20.69;15.14
17.10;-11.65;-39.20;49.99;33.65;1.42
21.13;-17.32;-39.20;37.03;34.41;-9.91
5.77;-7.62;-26.35;13.72;13.50;-5.01
-13.50;-11.65;-5.34;-0.76;5.44;-6.64
-10.35;0.44;2.72;-18.51;1.42;3.81
-16.77;6.86;16.33;-38.66;-16.33;-6.64
-24.83;-21.34;25.26;-47.59;-32.45;-9.04
-19.93;11.76;30.93;-49.99;-61.42;-14.70
-13.50;14.92;26.03;-39.53;-46.94;-18.73
-17.53;11.76;36.48;-65.23;-40.51;3.81
-13.50;10.89;33.32;-43.56;-40.51;21.56
2.61;10.89;43.02;-34.63;-46.17;20.69
1.74;2.07;25.26;-15.35;-45.30;1.42
0.98;3.70;8.28;1.63;-32.45;-4.25
0.22;4.46;-0.54;12.85;-2.61;-17.10
7.41;-9.26;-17.42;29.84;18.30;-12.31
13.83;-9.26;-44.00;33.87;32.02;-15.57
12.31;-9.26;-8.60;30.60;42.47;-17.97
16.33;-15.68;-32.02;40.29;35.28;14.27
16.33;-14.92;-40.84;36.26;32.02;13.50
3.38;-14.92;-42.47;40.29;25.59;-5.01
29.19;-14.05;-41.60;37.90;25.59;-9.91
5.01;-10.89;-23.96;-6.43;19.17;-5.01
1.74;-4.36;-5.34;-4.79;26.35;2.18
1.74;-1.20;2.72;-15.35;22.32;8.60
-13.50;3.70;21.24;-27.44;4.57;3.05
-16.77;9.26;28.42;-28.97;0.54;8.60
-13.50;10.89;33.32;-39.53;5.44;1.42
-23.20;10.89;37.35;-28.97;3.81;19.93
-10.35;16.55;35.72;-17.75;7.08;18.30
-11.11;7.73;50.97;-30.60;6.21;21.56
-16.77;6.10;23.63;-23.41;4.57;17.53
-29.62;6.10;20.36;-12.09;1.42;7.84
10.67;-3.59;9.15;-0.76;-17.10;-8.28
3.38;-1.96;0.22;15.35;-19.49;-17.10
14.70;-7.62;-15.03;25.81;-1.85;-21.13
13.83;-5.99;-22.32;34.63;-25.16;-14.70
17.10;-10.89;-30.38;29.84;-28.42;-24.39
18.73;-7.62;-37.57;37.90;-17.97;3.05
29.19;-10.02;-39.20;37.03;3.81;2.18
15.46;-14.92;-43.23;40.29;5.44;3.05
30.82;-14.05;-14.27;35.39;6.21;5.44
5.01;-12.41;-26.35;12.09;1.42;-11.54
26.79;-3.59;-8.60;-0.76;-7.51;3.81
-13.50;2.07;1.85;-18.51;-4.25;4.57
-19.93;8.49;17.97;-37.03;-28.42;4.57
-14.27;10.13;25.26;-66.86;-1.85;3.81
-20.80;13.29;39.75;-42.69;3.05;0.54
-24.83;-8.39;40.51;-38.66;12.63;11.11
-19.93;6.10;29.29;-30.60;7.84;17.53
-18.30;14.92;35.72;-38.66;2.18;29.62
-8.71;27.88;37.35;-34.63;-0.22;28.75
-0.65;10.13;23.63;-12.09;3.05;11.87
3.38;2.83;8.28;-4.03;4.57;3.81
8.28;3.70;-2.18;16.12;5.44;-0.98
14.70;-6.86;-17.42;43.45;19.17;-12.31
16.33;-7.62;-27.12;45.96;33.65;-9.91
39.64;-7.62;-31.15;45.96;33.65;-11.54
-8.71;-14.92;-33.54;45.96;29.62;3.05
18.73;-12.41;-30.38;37.03;18.30;1.42
21.13;-14.92;-46.50;13.72;3.81;-5.01
20.36;-8.39;-39.20;37.90;-17.97;-17.10
3.38;-11.65;-20.69;16.12;-29.19;-9.04
1.74;1.20;-8.60;-6.43;-38.88;-9.04
-10.35;2.83;1.85;-19.38;-28.42;10.24
20.36;6.86;38.11;-35.50;-21.13;1.42
-22.32;3.70;25.26;-59.68;-8.28;-3.48
-14.27;9.26;34.09;-46.72;3.05;-12.31
-17.53;10.13;38.11;-41.93;7.84;5.44
-14.27;11.76;30.93;-34.63;-3.48;11.87
-6.32;9.26;30.06;-39.53;-9.91;15.14
-19.17;8.49;35.72;-31.47;-20.36;11.87
-17.53;4.46;18.84;-13.72;-33.21;5.44
-8.71;3.70;8.28;-4.79;-33.21;-13.07
3.38;-5.99;-6.21;-14.48;-22.76;-12.31
8.28;-1.96;-19.06;40.29;-14.70;-13.94
13.83;-6.86;-26.35;35.39;3.81;-10.67
15.46;-10.89;-26.35;37.90;18.30;6.21
19.49;-11.65;-0.54;37.90;31.25;12.63
25.16;-11.65;-37.57;17.75;31.25;11.11
17.86;-12.41;-41.60;48.35;31.25;0.54
18.73;-19.71;-38.44;35.39;21.56;-9.91
5.77;-11.65;-23.96;14.48;12.63;-0.98
1.74;-6.86;-6.21;-0.00;5.44;3.05
-8.71;2.07;4.25;-13.72;-7.51;31.25
-11.87;6.10;20.36;-30.60;-6.64;8.60
-19.17;6.10;25.26;-65.23;-8.28;4.57
-19.93;22.98;35.72;-39.53;5.44;-0.98
-21.56;10.89;35.72;-39.53;23.96;17.53
-12.74;19.82;26.03;-28.21;24.72;20.69
-17.53;13.29;34.09;-27.44;19.93;27.99
-11.11;11.76;26.90;-18.51;3.05;24.72
-5.44;10.13;24.39;-8.82;-6.64;19.93
2.61;2.07;14.81;4.03;-11.43;-1.85
9.04;-1.20;-11.87;11.33;-11.43;-30.82
9.04;-8.39;-17.42;32.23;-10.67;-10.67
16.33;-10.02;-28.75;37.90;-3.48;-20.36
15.46;-10.02;-26.35;37.90;-9.04;-38.88
16.33;-10.89;-37.57;40.29;-8.28;3.05
21.13;-15.68;-38.44;38.66;-5.01;8.60
17.10;-14.05;-40.84;58.81;-24.39;-9.91
13.83;-15.68;-40.84;35.39;-1.85;-10.67
3.38;-14.92;-26.35;40.29;15.90;-9.91
-1.42;-5.99;-9.37;-0.76;-5.88;-9.91
-9.47;-1.20;-2.94;-16.12;-1.85;-0.98
-14.27;6.86;15.57;-27.44;3.81;3.05
-19.17;-25.37;25.26;-9.69;7.84;8.60
-21.56;8.49;40.51;-47.59;14.27;-4.25
-25.59;10.89;45.41;-48.35;10.24;38.44
-10.35;7.73;33.32;-39.53;5.44;11.11
-12.74;10.89;36.48;-37.90;-9.04;25.59
-21.56;7.73;38.11;-34.63;-3.48;23.20
-7.84;14.92;25.26;-12.85;-8.28;11.87
3.38;2.07;10.78;0.76;-20.36;13.50
5.01;-1.96;-22.32;23.30;-20.36;-5.01
11.43;-1.96;-15.90;50.75;-34.85;-14.70
15.46;-6.86;-26.35;38.66;6.21;-9.91
16.33;-10.02;-27.12;37.90;17.53;-18.73
12.31;-7.62;-46.50;42.69;23.20;21.56
15.46;-19.71;-44.00;37.90;19.17;3.05
17.10;-15.68;-38.44;38.66;9.47;-13.94
22.76;-12.41;-39.97;37.90;30.38;-39.64
9.04;-5.23;-23.96;19.38;30.38;8.60
0.98;-2.83;-12.63;-0.76;15.90;3.05
-6.32;-2.83;0.22;-15.35;5.44;4.57
-15.14;8.49;17.97;-26.57;-8.28;1.42
-19.93;8.49;25.26;-28.21;-16.33;3.05
-18.30;14.16;29.29;-34.63;-24.39;-1.85
-22.32;8.49;40.51;-39.53;-26.79;3.05
-17.53;6.86;33.32;-39.53;-37.24;10.24
-11.87;11.76;36.48;-44.32;-19.49;24.72
-13.50;13.29;34.09;-39.53;-13.94;23.96
-7.84;6.10;16.33;-15.35;-6.64;7.08
1.74;6.10;8.28;1.63;-4.25;-2.61
3.38;1.20;-0.54;-13.72;-3.48;-9.04
12.31;-5.23;-27.12;27.33;11.11;-7.51
13.83;-5.23;-21.45;37.90;15.90;-11.54
13.83;-5.23;-28.75;43.45;36.05;-8.28
15.46;-11.65;-35.17;58.81;44.10;11.11
16.33;-7.62;-37.57;47.48;47.37;11.11
2.61;-14.05;-35.17;49.11;42.47;-4.25
15.46;-14.05;-36.81;37.90;27.99;-13.07
14.70;-1.96;-26.35;12.09;6.21;-14.70
-3.81;1.20;1.85;-3.27;-13.07;-0.98
-3.81;-1.20;3.48;-14.48;-27.55;3.05
-10.35;6.10;17.21;-37.90;-46.17;3.05
-23.20;6.86;26.03;-41.06;-55.76;-2.61
-18.30;10.13;31.69;-46.72;-45.30;-10.67
-19.93;9.26;38.11;-40.29;-41.27;28.75
-11.11;6.10;33.32;-30.60;-30.06;1.42
-17.53;26.24;33.32;-66.10;-20.36;13.50
-16.77;9.26;30.93;-38.66;5.44;15.14
-11.87;6.10;37.35;-14.48;5.44;5.44
-3.05;6.10;11.54;1.63;16.66;-9.04
2.61;-2.83;1.85;30.60;6.21;-10.67
9.04;-5.99;-16.66;30.60;11.11;-17.10
13.83;-14.05;-26.35;28.97;5.44;-11.54
15.46;-8.39;-31.15;28.97;-5.88;-11.54
18.73;-14.05;-35.17;45.96;-1.85;7.84
18.73;-12.41;-34.41;43.45;1.42;11.87
17.86;-6.86;-39.20;45.96;3.81;19.93
18.73;-14.92;-44.00;37.90;9.47;-8.28
7.41;-5.99;-24.72;14.48;22.32;0.54
4.25;-1.96;-9.37;-9.69;31.25;2.18
-1.42;5.23;9.15;-13.72;23.96;14.27
3.38;6.10;22.87;-28.21;17.53;7.08
-16.77;10.89;26.90;-28.21;6.21;2.18
-13.50;15.79;30.93;-37.03;0.54;23.96
-17.53;7.73;40.51;-40.29;-2.61;17.53
-11.87;13.29;34.09;-22.54;-5.01;19.93
-10.35;9.26;39.75;-48.35;-3.48;26.35
-13.50;6.86;38.99;-33.87;-5.01;21.56
-8.71;5.23;22.87;8.06;-5.88;8.60
-0.65;2.83;8.28;6.43;-2.61;-7.51
6.64;-2.83;-11.00;19.38;-5.88;-13.94
10.67;-0.33;-15.03;24.18;-8.28;-21.13
15.46;-4.36;-26.35;33.87;-12.31;-17.10
17.10;-1.20;-27.12;37.90;-22.76;-9.91
13.83;-14.92;-31.15;41.93;1.42;4.57
19.49;-11.65;-38.44;37.90;-13.94;15.90
14.70;-8.39;-37.57;41.93;5.44;29.62
19.49;-12.41;-39.97;37.90;9.47;-31.58
7.41;-9.26;-22.32;14.48;15.90;-9.04
-3.81;-5.23;-7.84;-0.76;7.84;2.18
-7.84;-1.20;5.12;-33.87;20.69;4.57
-14.27;5.23;14.81;-54.01;3.05;7.08
-17.53;6.10;25.26;-37.03;-3.48;3.05
-19.93;8.49;34.09;-39.53;-3.48;2.18
-22.32;6.86;41.38;-17.75;4.57;7.08
-12.74;10.13;37.35;-30.60;-8.28;5.44
-13.50;14.92;27.66;-35.50;-14.70;19.17
-16.77;6.86;40.51;-35.50;-17.97;28.75
-10.35;6.10;21.24;-8.82;-20.36;3.05
21.13;3.70;7.51;-4.79;-9.04;16.66
3.38;3.70;-4.57;16.88;-5.01;-9.91
12.31;-5.99;-22.32;26.57;-0.98;-12.31
13.07;-11.65;-27.99;36.26;5.44;-6.64
14.70;-6.86;-26.35;34.63;-13.07;-13.94
9.80;-7.62;-36.81;40.29;18.30;20.69
16.33;-9.26;-50.53;41.06;19.93;33.65
17.86;-12.41;-44.87;42.69;15.90;-16.33
13.83;-12.41;-37.57;29.84;25.59;-11.54
13.83;-10.02;-24.72;15.35;18.30;-8.28
3.38;3.70;-26.35;-0.00;20.69;15.14
-0.65;2.07;4.25;-14.48;20.69;11.87
-11.11;6.10;23.63;-31.47;10.24;3.05
-36.92;6.10;43.78;-39.53;-3.48;-2.61
-22.32;10.13;50.97;-33.87;-17.97;3.05
-17.53;14.16;48.57;-39.53;-22.00;14.27
-8.71;6.10;34.09;-31.47;-26.03;11.87
-18.30;11.76;50.97;-29.84;-8.28;15.14
-12.74;14.92;37.35;-21.78;-17.97;20.69
-7.84;6.10;22.87;-13.72;-0.22;3.05
-0.65;3.70;4.25;-0.76;9.47;-2.61
4.25;-2.83;-0.54;16.88;6.21;11.11
-14.27;-5.99;-22.32;27.33;5.44;-11.54
11.43;-3.59;-43.23;33.87;7.84;-9.91
18.73;-6.86;-0.54;43.45;-2.61;-12.31
15.46;-14.05;-39.20;48.35;-15.46;3.05
16.33;-14.92;-36.05;41.93;-34.09;-1.85
31.58;-15.68;-38.44;74.92;-46.94;-14.70
12.31;-14.92;-27.12;29.84;-50.97;-18.73
3.38;-12.41;-27.12;3.27;-33.21;-14.70
-23.96;-5.23;-11.00;-13.72;-6.64;1.42
-3.81;3.70;0.22;-30.60;22.32;8.60
-11.87;6.10;21.24;-39.53;39.31;4.57
-15.14;6.10;25.26;-43.56;45.74;3.05
-13.50;6.10;30.93;-40.29;48.90;0.54
-21.56;14.16;55.87;-34.63;45.74;11.87
-18.30;10.13;51.84;-24.94;31.25;15.90
-7.08;10.13;37.35;-31.47;14.27;-5.01
3.38;10.13;37.35;-1.63;-2.61;19.93
-10.35;7.73;25.26;-8.06;-22.00;5.44
3.38;2.07;9.91;10.45;-31.58;-34.09
-31.25;0.44;0.22;16.88;-31.58;-12.31
17.10;-1.96;-17.42;-0.00;-29.19;-21.13
16.33;-4.36;-18.30;37.03;-17.97;-17.10
17.86;-10.89;-27.99;51.51;-11.43;-17.10
6.64;-10.89;-44.00;38.66;0.54;4.57
15.46;-9.26;-37.57;40.29;7.84;7.84
14.70;-14.05;-44.00;42.69;17.53;-1.85
12.31;-11.65;-43.23;37.90;18.30;-11.54
7.41;-11.65;-26.35;12.09;31.25;-0.98
-5.44;-2.83;-11.00;-0.00;26.35;4.57
-6.32;-1.96;1.85;-8.82;19.17;7.08
-13.50;6.10;22.00;-29.84;7.84;3.05
-35.28;8.49;26.03;-35.50;11.11;4.57
-20.80;11.76;34.96;-41.06;-1.85;3.05
-19.93;11.76;40.51;-39.53;-26.03;15.14
-19.93;6.86;38.11;-26.57;-14.70;10.24
-10.35;10.13;36.48;-39.53;-18.73;16.66
-11.11;11.76;38.11;-31.47;-16.33;21.56
-7.84;10.89;34.09;-13.72;-14.70;10.24
0.98;4.46;11.54;-6.43;-2.61;-5.88
3.38;5.23;-9.37;13.72;4.57;-7.51
9.04;-6.86;-23.96;24.94;5.44;-11.54
17.10;-14.05;-26.35;33.87;4.57;-18.73
46.94;-3.59;-32.02;39.42;5.44;-18.73
16.33;-15.68;-30.38;42.69;10.24;3.05
17.10;-12.41;-39.97;41.93;18.30;3.05
11.43;-18.95;-40.84;37.90;9.47;-0.98
-21.56;-12.41;-44.00;33.00;12.63;-8.28
3.38;-6.86;-26.35;14.48;12.63;-8.28
-2.29;3.70;-7.84;0.76;7.84;2.18
-7.08;2.83;3.48;-13.72;7.08;3.05
-21.56;6.86;17.97;-29.84;15.90;0.54
-17.53;5.23;26.03;-29.84;-6.64;3.05
-11.87;10.89;34.96;-41.06;-27.55;-5.01
-16.77;8.49;38.99;-40.29;0.54;4.57
-14.27;10.13;30.93;-31.47;-20.36;3.05
-8.71;6.10;33.32;-38.66;-22.00;15.14
-22.32;13.29;42.14;-23.41;-20.36;15.90
-8.71;6.10;26.90;-13.72;-20.36;3.81
-1.42;-1.20;16.33;-0.76;-10.67;-2.61
3.38;0.44;-2.94;27.33;2.18;-11.54
11.43;-4.36;-26.35;26.57;12.63;-4.25
12.31;-11.65;-13.39;35.39;17.53;-7.51
20.36;-10.89;-27.12;41.93;19.93;-7.51
20.36;-8.39;-31.15;41.93;20.69;40.84
21.13;-10.89;-37.57;40.29;18.30;21.56
21.89;-8.39;-40.84;46.72;12.63;-7.51
20.36;-10.89;-44.00;35.39;7.84;-18.73
7.41;-7.62;-26.35;16.88;-0.22;-6.64
3.38;-1.96;-1.31;-0.76;-8.28;3.05
-4.68;1.20;-0.54;-13.72;-8.28;4.57
15.46;6.10;25.26;-28.21;0.54;3.05
-43.34;6.10;20.36;-33.00;3.05;1.42
-20.80;6.10;30.06;-43.56;0.54;-1.85
-17.53;17.32;37.35;-44.32;-2.61;7.08
-18.30;6.86;30.93;-31.47;-11.43;14.27
-15.14;11.76;29.29;-38.66;-17.10;27.99
-11.87;13.29;38.11;-31.47;-20.36;21.56
-17.53;10.13;25.26;-12.85;-19.49;15.14
1.74;2.07;36.48;-0.76;-9.04;-25.16
15.46;1.20;-8.60;15.35;1.42;8.60
16.33;-2.83;-17.42;34.63;6.21;-11.54
16.33;-6.86;-23.96;29.84;17.53;-11.54
14.70;-11.65;-30.38;37.90;20.69;-11.54
16.33;-10.89;-32.02;29.84;18.30;7.84
15.46;-18.95;-42.47;42.69;18.30;3.81
16.33;-14.92;-40.84;46.72;29.62;-2.61
17.10;-18.08;-40.84;37.90;26.35;-13.94
28.42;-15.68;-24.72;3.27;18.30;-8.28
-22.32;-3.59;-7.84;10.45;6.21;3.05
-27.22;13.29;0.22;-12.09;-9.91;7.08
-40.08;6.86;10.78;-32.23;-33.21;3.05
-5.44;15.79;29.29;-50.75;-50.20;3.05
-18.30;10.13;34.09;-52.38;-54.99;-2.61
5.77;18.95;36.48;-49.99;-43.67;7.84
-19.93;11.76;33.32;-44.32;-21.13;7.84
-10.35;8.49;29.29;-41.93;0.54;20.69
-13.50;6.86;35.72;-28.21;7.84;19.17
-13.50;6.10;25.26;-11.33;7.84;3.05
-3.81;-1.96;10.78;36.26;3.81;-2.61
8.28;2.07;-2.94;9.69;0.54;-12.31
9.04;-4.36;-11.87;16.88;-0.22;-31.58
17.10;-8.39;-26.35;28.97;5.44;-13.07
12.31;-10.89;-27.12;35.39;13.50;-21.13
14.70;-16.44;-36.81;66.10;28.75;3.05
21.89;-14.05;-39.20;38.66;32.78;8.60
19.49;-18.08;-39.20;42.69;31.25;-4.25
54.99;-15.68;-41.60;45.96;23.20;-17.97
5.77;-9.26;-26.35;22.54;12.63;-0.98
-23.20;-6.86;-14.27;5.66;1.42;-12.31
-43.34;-1.96;-2.94;-18.51;-6.64;11.87
-8.71;6.10;17.97;-28.21;-17.10;10.24
-21.56;6.10;27.66;-37.03;-22.00;7.08
-19.17;13.29;34.09;-37.03;-20.36;2.18
-35.28;10.89;37.35;-40.29;-19.49;11.87
-17.53;6.10;37.35;-33.87;-9.91;17.53
-19.93;9.26;47.04;-35.50;-6.64;20.69
-16.77;10.13;40.51;-34.63;6.21;26.35
-7.08;6.10;25.26;-13.72;16.66;9.47
2.61;-10.89;11.54;1.63;18.30;-9.04
5.77;-1.20;-6.21;12.09;10.24;-9.91
12.31;-8.39;-20.69;24.94;9.47;-19.60
17.10;-8.39;-39.20;35.39;-2.61;-18.73
15.46;-6.86;-26.35;29.84;-6.64;-22.76
24.39;-9.26;-33.54;43.45;-5.88;3.05
20.36;-8.39;-49.66;42.69;5.44;-9.91
21.13;-14.05;-38.44;41.93;5.44;-8.28
21.89;-13.29;-39.20;35.39;5.44;-11.54
14.70;-6.86;-27.12;-3.27;3.81;-8.28
3.38;-4.36;-11.00;-16.12;1.42;3.05
-3.81;3.70;3.48;-10.45;4.57;10.24
-11.87;6.10;17.21;-28.21;9.47;10.24
-14.27;14.16;32.45;-24.94;13.50;7.84
-17.53;7.73;37.35;-41.06;7.08;3.05
-22.32;14.16;42.14;-39.53;-0.22;15.14
-13.50;6.10;25.26;-38.66;-13.07;29.62
-13.50;14.16;39.75;-31.47;-17.97;23.96
-17.53;14.16;34.09;-33.87;-13.07;17.53
-7.84;6.86;52.60;-15.35;-19.49;-11.54
3.38;2.83;13.18;-2.40;-8.28;-5.88
18.73;-4.36;-12.63;10.45;3.05;-14.70
11.43;-4.36;-15.90;28.97;7.08;-23.52
5.01;-5.99;-26.35;37.90;10.24;-17.10
16.33;-7.62;-28.75;20.15;19.17;-17.97
16.33;-6.86;-35.17;33.87;22.32;2.18
17.10;-15.68;-39.20;41.93;4.57;2.18
16.33;-9.26;-40.84;37.90;-5.01;-7.51
17.10;-19.71;-34.41;37.90;-11.43;-12.31
12.31;-12.41;-26.35;12.09;-26.03;-13.94
-0.65;-0.33;-11.00;-9.69;-33.21;-2.61
-7.08;2.07;-0.54;-0.76;-37.24;7.84
-11.11;6.10;14.81;-39.53;-22.76;3.05
-16.77;7.73;24.39;-37.03;-24.39;3.05
-18.30;10.13;33.32;-39.53;16.66;-0.22
-19.93;19.82;36.48;-41.93;31.25;14.27
-17.53;10.13;33.32;-25.81;32.78;24.72
-3.81;10.13;40.51;-38.66;32.78;32.78
-9.47;14.92;37.35;-25.81;20.69;28.75
-11.11;6.10;28.42;-13.72;-16.33;11.87
1.74;1.20;10.78;4.79;-5.01;-4.25
3.38;-5.23;-0.54;17.75;-19.49;-9.91
4.25;-6.86;-17.42;24.94;-24.39;-17.10
11.43;-4.36;-21.45;33.00;-17.97;-10.67
11.43;-7.62;-26.35;33.00;4.57;-12.31
13.83;-10.89;-31.15;38.66;16.66;2.18
19.49;-12.41;-39.20;43.45;22.32;4.57
14.70;-10.89;-46.50;46.72;23.20;-9.91
18.73;-10.89;-39.97;40.29;18.30;-12.31
13.83;-5.99;-25.48;20.91;17.53;-31.58
3.38;-1.20;-6.21;-28.21;15.14;1.42
-0.65;-1.96;1.85;-35.50;23.20;10.24
-11.87;10.89;20.36;-25.81;21.56;8.60
-18.30;6.86;26.90;-27.44;13.50;4.57
-17.53;5.23;34.96;-39.53;-2.61;3.05
-16.77;8.49;38.11;-49.99;-32.45;9.47
-11.11;7.73;34.09;-40.29;-40.51;3.05
-11.11;14.16;22.00;-38.66;-37.24;7.08
-14.27;11.76;35.72;-28.97;-29.19;15.90
-12.74;6.10;25.26;-12.85;-20.36;6.21
3.38;6.10;11.54;7.30;-8.28;-13.94
5.77;-1.20;-2.18;11.33;0.54;-14.70
9.04;-4.36;-18.30;14.48;-9.04;-22.76
9.04;-5.99;-26.35;23.30;-8.28;-21.13
11.43;-9.26;-26.35;22.54;-1.85;1.42
17.10;-10.89;-37.57;28.97;15.90;-2.61
17.10;-18.08;-39.97;37.03;36.81;7.08
14.70;-14.92;-39.97;39.42;39.31;4.57
14.70;-18.95;-48.02;37.90;30.38;-16.33
5.77;3.70;-26.35;12.09;21.56;-7.51
1.74;-5.99;-13.39;1.63;7.84;-0.22
-7.08;-1.20;-3.81;-8.06;-9.04;10.24
-11.87;-1.20;40.51;-24.94;-17.97;3.81
-11.11;2.07;25.26;-31.47;-41.27;1.42
-15.14;6.86;34.09;-39.53;-37.24;2.18
-19.93;14.92;41.38;-39.53;-26.03;13.50
-15.14;14.16;37.35;-37.03;-17.97;11.11
-17.53;6.86;37.35;-39.53;-5.01;20.69
-10.35;9.26;38.99;-37.03;3.81;20.69
-6.32;10.13;25.26;-12.09;7.08;7.08
-1.42;6.86;10.78;-0.00;7.08;-1.85
3.38;1.20;-0.54;13.72;10.24;-6.64
12.31;-1.20;-12.63;28.97;10.24;-15.57
17.10;-9.26;-21.45;33.87;16.66;-13.07
16.33;-11.65;-26.35;35.39;16.66;-2.61
16.33;-11.65;-33.54;43.45;16.66;7.84
17.86;-18.08;-39.20;43.45;20.69;10.24
15.46;-14.92;-39.20;43.45;19.17;-4.25
11.43;-15.68;-36.81;38.66;10.24;-11.54
4.25;-10.89;-26.35;22.54;5.44;-11.54
1.74;-2.83;-9.37;4.79;-10.67;2.18
-0.65;2.07;-7.84;-14.48;-16.33;3.05
-14.27;6.10;22.87;-31.47;-21.13;7.84
-18.30;6.10;26.90;-36.26;-25.16;3.05
-21.56;6.10;30.93;-40.29;-23.52;4.57
-23.96;13.29;38.99;-56.41;-17.97;7.08
-17.53;14.16;33.32;-26.57;2.18;18.30
-16.77;10.13;35.72;-40.29;16.66;27.99
-22.32;10.13;35.72;-38.66;27.22;19.93
-5.44;10.89;22.87;-23.41;26.35;11.87
0.98;3.70;6.75;-0.00;13.50;-4.25
8.28;-2.83;-0.54;12.09;4.57;-1.85
9.04;-5.23;-16.66;30.60;3.81;-18.73
14.70;-5.99;-21.45;33.87;-13.94;-21.13
12.31;-10.02;-0.54;37.03;-31.58;-18.73
13.83;-11.65;-30.38;38.66;-42.14;0.54
16.33;-8.39;-38.44;41.93;-34.85;3.05
20.36;-18.08;-41.60;42.69;-40.51;-3.48
17.10;-10.89;-39.20;43.45;-6.64;-18.73
9.04;-6.86;-26.35;12.85;13.50;-9.04
0.98;-5.99;1.85;-6.43;14.27;2.18
-5.44;1.20;4.25;-14.48;20.69;18.30
-10.35;4.46;12.31;-28.97;31.25;7.84
-11.87;8.49;5.12;-34.63;23.96;5.44
-20.80;12.52;35.72;-41.93;15.90;6.21
-21.56;7.73;37.35;-39.53;3.05;15.14
-18.30;6.10;33.32;-34.63;-9.04;13.50
-14.27;8.49;30.93;-31.47;-8.28;28.75
-19.93;8.49;34.96;-28.21;-5.88;28.75
-13.50;6.10;25.26;-16.88;-2.61;3.81
-0.65;6.10;13.18;8.82;4.57;-4.25
4.25;2.07;-0.54;16.12;9.47;-14.70
10.67;-4.36;-14.27;26.57;5.44;-18.73
15.46;-1.20;-20.69;38.66;7.08;-18.73
20.36;-7.62;-26.35;33.87;3.05;-22.76
15.46;-11.65;-31.15;40.29;-4.25;3.05
16.33;-10.89;-35.17;42.69;-7.51;3.05
16.33;-11.65;-39.20;48.35;-13.07;-13.94
13.07;-17.32;-39.20;37.90;-2.61;-18.73
12.31;-6.86;-28.75;16.12;1.42;-9.91
29.95;-5.23;-12.63;2.40;7.08;-27.55
-7.84;-2.83;-0.54;-14.48;5.44;3.05
-11.11;6.86;12.31;-28.21;5.44;11.87
-18.30;5.23;24.39;-30.60;4.57;8.60
-20.80;27.01;33.32;-39.53;5.44;7.08
-22.32;8.49;38.11;-38.66;0.54;19.17
-19.93;6.10;30.93;-28.97;-0.22;16.66
-13.50;11.76;27.66;-38.66;0.54;28.75
-15.14;14.92;38.11;-32.23;3.05;25.59
-7.08;6.10;26.03;-13.72;-3.48;5.44
-0.65;3.70;11.54;4.79;-7.51;-7.51
3.38;1.20;-0.54;10.45;-7.51;-14.70
11.43;-5.23;-11.87;20.91;-16.33;-20.36
16.33;-9.26;-17.42;30.60;-16.33;-22.00
16.33;-5.23;-20.69;34.63;-9.91;-10.67
16.33;-7.62;-27.99;40.29;-9.91;2.18
16.33;-11.65;-38.44;47.48;-5.88;1.42
17.86;-12.41;-37.57;47.48;5.44;-9.91
18.73;-14.05;-62.62;49.11;5.44;-24.39
9.04;-8.39;-39.20;20.91;3.05;-13.94
-0.65;-5.99;-8.60;12.85;3.05;-0.22
-5.44;3.70;13.94;-16.12;7.08;14.27
-10.35;6.10;15.57;-27.44;23.96;14.27
-17.53;6.10;26.03;-31.47;36.81;10.24
-11.87;10.13;12.31;-37.03;23.20;3.05
-31.25;7.73;34.09;-58.04;19.93;15.14
-19.93;11.76;27.66;-28.97;27.22;19.93
-14.27;8.49;33.32;-39.53;5.44;33.65
-17.53;11.76;38.99;-30.60;-5.01;30.38
-5.44;6.86;26.90;-12.09;-13.07;5.44
3.38;5.23;10.78;9.69;-21.13;0.54
3.38;2.07;-0.54;11.33;-20.36;-13.94
8.28;-5.23;-14.27;22.54;-32.45;-27.55
12.31;-6.86;-7.84;24.18;-41.27;-22.76
13.83;-8.39;-25.48;33.87;-38.88;-22.76
21.13;-14.05;-31.15;42.69;-30.82;-27.55
17.86;-10.89;-36.81;66.10;-41.27;-9.04
15.46;-14.92;-24.72;37.03;1.42;-18.73
16.33;-8.39;-39.20;27.33;11.11;-17.10
3.38;-8.39;-26.35;12.09;11.11;-22.76
3.38;-1.20;-38.44;-0.76;19.93;-8.28
-29.62;1.20;-2.18;-13.72;14.27;-11.54
-11.11;3.70;11.54;-27.44;14.27;9.47
-20.80;6.10;22.87;-32.23;33.65;7.84
-36.92;9.26;32.45;-37.03;9.47;29.62
-22.32;9.26;26.03;-38.66;9.47;19.93
-19.93;6.10;28.42;-25.81;1.42;19.93
-15.14;10.13;35.72;-28.97;0.54;29.62
-14.27;10.89;36.48;-33.87;5.44;24.72
-3.81;6.10;26.90;-12.09;19.93;7.08
0.98;1.20;13.18;3.27;18.30;3.05
5.77;0.44;-0.54;12.09;22.32;-9.91
11.43;-7.62;-2.94;24.18;13.50;-20.36
13.83;-4.36;-22.32;37.90;6.21;-14.70
16.33;-10.89;-24.72;36.26;-11.43;-20.36
27.55;-9.26;-38.44;37.90;-25.16;-34.85
19.49;-11.65;-36.05;37.03;-31.58;3.05
18.73;-10.89;-30.38;40.29;-22.76;-14.70
9.80;-14.05;-53.69;41.93;-9.91;-20.36
12.31;-10.02;-26.35;20.15;-1.85;-7.51
1.74;-2.83;-11.87;-4.79;-1.85;18.30
17.10;2.07;-0.54;3.27;5.44;5.44
-3.81;6.10;12.31;-28.97;-4.25;7.08
-13.50;13.29;25.26;-30.60;-11.43;7.84
-14.27;10.89;26.03;-39.53;-15.46;5.44
-18.30;10.13;38.99;-43.56;-10.67;17.53
-40.08;7.73;35.72;-29.84;-0.98;19.93
-12.74;7.73;33.32;-35.50;10.24;28.75
-15.14;8.49;9.15;-33.87;31.25;34.41
-11.87;6.10;25.26;-39.53;28.75;4.57
-2.29;6.10;-1.31;3.27;7.08;11.87
-19.93;-1.96;14.81;8.06;-1.85;-13.94
17.86;-6.86;-16.66;27.33;-9.04;-22.00
11.43;-6.86;-26.35;33.87;-9.04;-24.39
2.61;-8.39;-26.35;36.26;-5.88;-23.52
12.31;-6.86;-31.15;38.66;-4.25;-8.28
23.52;-10.89;-35.17;37.90;-0.22;-0.98
13.83;-15.68;-40.84;39.42;15.90;-13.94
17.10;-10.89;-43.23;36.26;22.32;-11.54
12.31;-5.23;-26.35;20.91;18.30;-1.85
-0.65;14.16;-13.39;4.79;12.63;2.18
9.04;1.20;0.22;-12.85;7.84;12.63
-14.27;6.10;4.25;-18.51;5.44;8.60
-13.50;6.10;25.26;-60.44;5.44;11.87
11.43;6.10;26.03;-45.08;-29.19;3.05
-7.08;11.76;37.35;-39.53;-28.42;-13.94
-11.11;8.49;31.69;-28.97;-28.42;12.63
-10.35;13.29;30.93;-39.53;-30.82;15.14
-14.27;13.29;35.72;-34.63;-20.36;15.90
-4.68;6.86;25.26;-14.48;-14.70;3.05
-11.11;6.10;8.28;-1.63;-9.04;-25.16
-1.42;2.07;-1.31;12.09;5.44;-17.97
15.46;-10.89;-13.39;28.21;23.96;-21.13
11.43;-10.89;-25.48;37.90;36.81;-19.60
20.36;-7.62;-26.35;36.26;36.05;-15.57
17.10;-13.29;-34.41;37.03;22.32;3.05
15.46;-11.65;-39.20;32.23;7.84;6.21
15.46;-19.71;-39.20;41.06;3.05;-5.88
13.83;-12.41;-39.20;43.45;-13.07;-10.67
26.79;-5.99;-30.38;22.54;-23.52;-10.67
1.74;-3.59;-10.24;-3.27;-30.82;3.05
-4.68;-1.96;-0.54;-11.33;-14.70;8.60
-11.87;6.10;17.97;-21.78;5.44;7.84
-24.83;6.86;26.03;-31.47;27.22;7.08
-7.08;6.86;34.09;-17.75;26.35;3.05
-20.80;10.13;26.90;-43.56;6.21;37.68
-14.27;6.10;36.48;-41.93;-11.43;18.30
-9.47;10.89;33.32;-43.56;-20.36;25.59
-32.02;14.92;38.11;-40.29;-20.36;21.56
-3.81;6.86;26.90;-19.38;-19.49;5.44
3.38;6.10;16.33;-14.48;3.81;-4.25
-13.50;-4.36;4.25;12.09;13.50;-13.94
1.74;-6.86;-11.00;13.72;22.32;-17.10
9.04;-5.99;-26.35;31.36;18.30;-18.73
18.73;-9.26;-26.35;33.87;14.27;-17.97
17.10;-14.05;-34.41;37.90;3.81;-17.97
39.64;-13.29;-39.97;37.90;-7.51;2.18
16.33;-14.05;-39.97;63.60;-17.10;-5.01
17.86;-11.65;-40.84;37.90;-17.97;-12.31
8.28;-5.99;-28.75;14.48;-18.73;-15.57
-0.65;0.44;-14.27;1.63;-12.31;12.63
-4.68;2.07;-2.94;-8.82;-13.94;2.18
-17.53;6.10;13.94;-35.50;-26.03;0.54
-22.32;6.86;25.26;-52.38;4.57;3.05
-22.32;6.86;13.18;-27.44;12.63;-1.85
-26.35;10.89;42.14;-40.29;12.63;8.60
-8.71;10.13;32.45;-33.87;8.60;15.14
-13.50;7.73;29.29;-38.66;-3.48;28.75
-24.83;9.26;36.48;-34.63;11.11;28.75
-14.27;7.73;27.66;-21.78;7.08;17.53
-3.81;1.20;12.31;-0.00;16.66;4.57
2.61;1.20;-0.54;-13.72;25.59;-6.64
11.43;-4.36;-10.24;20.91;27.99;-22.76
15.46;-8.39;-44.87;27.33;16.66;-33.21
5.77;-9.26;-21.45;25.81;0.54;-37.24
-2.29;-12.41;-25.48;23.30;-17.10;-30.82
-19.93;-8.39;-26.35;24.18;-32.45;-26.79
5.01;-7.62;-2.18;28.97;-46.17;-60.66
6.64;-7.62;-20.69;14.48;-48.57;-48.57
5.01;-1.20;-35.17;12.09;-42.14;-24.39
-0.65;-1.96;-11.87;0.76;-20.36;3.05
14.70;4.46;-2.18;-28.21;11.11;27.99
-22.32;3.70;3.48;-33.87;35.28;44.10
-7.08;5.23;8.28;-8.06;41.71;43.34
-0.65;1.20;11.54;-8.82;40.84;56.19
-2.29;3.70;13.18;-8.82;34.41;54.56
-3.81;10.13;14.81;-13.72;10.24;52.93
16.33;6.10;14.81;-11.33;-1.85;66.65
0.98;6.10;16.33;-13.72;-22.76;56.19
-5.44;2.07;7.51;9.69;-24.39;29.62
-2.29;3.70;28.42;-5.66;-20.36;-7.51
0.98;-1.20;-0.54;2.40;-17.97;-48.57
4.25;-5.23;-9.37;8.06;-11.43;-44.54
3.38;-5.23;0.22;13.72;-7.51;-46.94
5.77;-7.62;-11.87;12.85;-2.61;-47.70
5.77;-5.23;-15.90;20.91;5.44;-37.24
9.04;-6.86;-19.06;20.91;7.84;-34.85
7.41;-4.36;-15.03;17.75;27.22;-52.60
7.41;-5.23;-15.03;12.09;28.75;-52.60
3.38;1.20;-2.94;9.69;29.62;-24.39
4.25;-3.59;-3.81;4.79;31.25;1.42
-1.42;1.20;1.85;-0.00;23.96;19.17
-0.65;-1.20;11.54;-3.27;15.14;41.71
-3.81;2.07;12.31;-8.06;5.44;48.90
-7.08;4.46;4.25;-12.85;-7.51;56.95
-21.56;6.10;9.91;-3.27;-17.97;57.83
-1.42;10.89;13.94;-12.09;-26.03;45.74
-8.71;6.10;12.31;-24.18;-42.14;60.22
-6.32;6.10;13.18;-17.75;-44.54;52.93
-11.11;4.46;10.78;-12.85;-32.45;14.27
-24.83;3.70;7.51;-4.03;-21.13;-10.67
-6.32;4.46;4.25;-0.76;-9.91;-36.48
4.25;-5.99;-4.57;9.69;-1.85;-49.33
8.28;-3.59;-22.32;12.09;1.42;-40.51
3.38;-5.23;-14.27;15.35;1.42;-46.17
8.28;-8.39;-15.03;17.75;5.44;-40.51
13.83;-6.86;-15.90;18.51;10.24;-34.09
3.38;-9.26;-19.06;13.72;16.66;-53.36
-3.81;-1.20;-11.87;12.09;23.20;-50.20
13.07;-2.83;-6.21;14.48;20.69;-33.21
2.61;-14.05;-1.31;3.27;20.69;3.05
0.22;3.70;3.48;-0.76;14.27;21.56
-0.65;2.07;7.51;-8.82;7.84;40.84
-7.08;6.10;8.28;-13.72;5.44;52.16
-2.29;4.46;1.85;-13.72;1.42;50.53
-3.81;3.70;12.31;-16.12;-4.25;54.56
-7.08;5.23;17.97;-11.33;-7.51;44.10
2.61;5.23;14.81;-15.35;-6.64;68.28
-1.42;6.10;12.31;-11.33;-5.88;56.19
-5.44;5.23;8.28;-4.79;-2.61;29.62
0.22;5.23;24.39;7.30;3.05;-5.01
-2.29;2.07;0.22;12.09;4.57;-24.39
3.38;-2.83;-1.31;12.09;5.44;-47.70
9.04;-2.83;-7.84;10.45;1.42;-44.54
8.28;-5.23;-9.37;12.09;2.18;-48.57
2.61;-2.83;-13.39;16.12;-5.01;-46.94
5.77;-5.99;-20.69;6.43;-9.91;-45.30
2.61;-5.99;-12.63;4.79;-8.28;-63.82
3.38;-5.99;-9.37;12.09;8.60;-68.72
4.25;-1.20;-14.27;9.69;5.44;-36.48
1.74;0.44;-2.18;-0.00;-6.64;-17.10
-0.65;3.70;1.85;-5.66;-24.39;11.11
2.61;4.46;-17.42;-8.82;-15.46;28.75
-7.08;-1.20;1.85;-14.48;-8.28;65.01
-0.65;4.46;11.54;-17.75;4.57;54.56
-5.44;4.46;13.18;-17.75;5.44;54.56
-5.44;6.10;10.78;-13.72;6.21;71.44
-10.35;3.70;13.94;-13.72;5.44;63.49
-9.47;6.10;12.31;-9.69;-2.61;62.62
-7.08;5.23;9.91;-8.06;-16.33;27.99
-3.05;5.23;1.09;-1.63;-20.36;11.87
3.38;-1.20;-2.18;4.03;-20.36;-22.76
5.77;-4.36;-2.94;7.30;-2.61;-48.57
3.38;-6.86;-6.21;14.48;20.69;-46.94
5.77;-5.99;-13.39;27.33;40.08;-45.30
10.67;-3.59;-15.90;18.51;23.20;-37.24
9.04;-8.39;-15.90;20.91;11.11;-40.51
7.41;-4.36;-14.27;14.48;-1.85;-54.23
29.19;-1.96;-11.00;11.33;-9.91;-61.42
6.64;2.07;-9.37;9.69;-2.61;-25.16
-0.65;6.10;-0.54;-2.40;7.84;5.44
-0.65;3.70;-0.54;-8.06;18.30;26.35
-5.44;2.07;11.54;-12.85;25.59;40.84
-7.84;3.70;13.18;-2.40;27.22;27.22
-7.84;6.10;12.31;-12.85;14.27;53.80
-10.35;6.10;14.81;-12.85;6.21;53.80
-0.65;4.46;15.57;-18.51;-4.25;43.34
-7.08;4.46;13.18;-13.72;-2.61;69.91
-4.68;7.73;17.97;-16.12;-0.22;54.56
3.38;6.10;13.94;-13.72;-12.31;25.59
-3.81;2.83;7.51;-8.06;-18.73;-5.88
0.98;22.22;-0.54;-3.27;-14.70;-25.16
3.38;1.20;-4.57;7.30;-0.22;-54.23
5.01;-5.23;-4.57;12.09;-5.01;-47.70
10.67;-5.99;-12.63;17.75;-13.94;-49.33
9.04;-7.62;-19.06;21.78;-14.70;-59.02
7.41;-2.83;-18.30;14.48;-14.70;-37.24
4.25;-6.86;-19.06;20.91;-11.43;-59.02
1.74;-5.99;-15.90;15.35;-9.91;-60.66
3.38;-2.83;-11.87;8.06;-18.73;-26.79
5.01;-1.20;-4.57;-5.66;-11.43;-3.48
-6.32;-1.20;-0.54;-2.40;1.42;23.20
-5.44;0.44;9.91;-8.06;7.08;32.78
-4.68;6.10;7.51;-8.82;15.14;44.87
-7.84;6.10;-15.90;-3.27;11.11;48.90
-8.71;6.10;12.31;-12.85;5.44;49.77
-6.32;5.23;11.54;-13.72;3.05;54.56
1.74;6.10;9.15;-13.72;4.57;54.56
-4.68;5.23;12.31;-11.33;-1.85;49.77
-7.08;7.73;13.94;-4.79;3.05;27.99
2.61;-1.96;4.25;-0.00;8.60;-9.91
0.98;2.07;1.85;7.30;9.47;-17.10
7.41;-2.83;-3.81;11.33;8.60;-38.11
4.25;-5.99;-7.84;12.09;6.21;-40.51
5.77;-2.83;-10.24;16.88;2.18;-40.51
8.28;-4.36;-12.63;16.88;-5.01;-37.24
5.77;-6.86;-14.27;16.88;-5.01;-34.09
5.01;-6.86;-9.37;-12.85;-9.04;-59.79
7.41;-2.83;-29.51;9.69;-9.04;-55.76
3.38;-5.99;-10.24;-1.63;-5.88;-65.45
-3.81;2.83;-2.94;-3.27;-6.64;-24.39
-4.68;1.20;1.09;-8.06;-1.85;13.50
-8.71;2.07;10.78;-12.85;5.44;34.41
-2.29;6.10;11.54;-4.79;12.63;43.34
-3.81;6.86;12.31;-4.79;15.90;54.56
-2.29;6.86;19.60;-11.33;12.63;53.80
1.74;6.10;16.33;-22.54;5.44;54.56
-0.65;6.10;14.81;-10.45;-6.64;69.04
-7.08;6.10;17.21;-13.72;-5.88;61.86
-11.11;6.86;9.91;-4.79;-9.91;30.38
-0.65;0.44;10.78;4.79;-3.48;5.44
-3.81;2.83;0.22;8.82;3.05;-30.06
3.38;3.70;-5.34;17.75;6.21;-48.57
3.38;1.20;-8.60;16.12;18.30;-44.54
8.28;-6.86;-12.63;20.15;9.47;-46.94
5.01;-5.99;-18.30;12.85;-5.01;-43.67
10.67;-5.23;-17.42;12.85;-22.00;-37.24
4.25;-5.99;-14.27;-1.63;-44.54;-61.42
4.25;-6.86;-15.03;-2.40;-46.17;-68.72
3.38;-2.83;-10.24;4.03;-23.52;-30.82
1.74;-1.20;-1.31;-0.76;-13.94;-5.01
-0.65;2.83;0.22;-6.43;5.44;28.75
-5.44;2.07;1.85;-11.33;18.30;37.68
-5.44;-1.20;5.12;-13.72;27.22;71.44
-2.29;5.23;8.28;-11.33;16.66;56.19
-0.65;6.10;22.87;-4.79;27.22;56.95
0.22;5.23;12.31;-8.82;23.96;54.56
-0.65;6.10;-11.00;-11.33;32.02;69.04
-1.42;5.23;13.94;-14.48;12.63;56.95
-5.44;4.46;8.28;-9.69;11.11;27.22
0.98;6.10;1.85;1.63;14.27;-1.85
3.38;4.46;1.09;37.03;15.90;-25.16
3.38;-2.83;-1.31;10.45;8.60;-40.51
3.38;-1.20;-9.37;12.09;4.57;-40.51
7.41;-5.23;-6.21;16.12;-6.64;-39.64
5.77;-4.36;-13.39;17.75;-17.97;-45.30
10.67;-4.36;-13.39;21.78;-17.97;-41.27
3.38;-3.59;-6.21;24.18;-21.13;-68.72
4.25;-5.23;-11.87;14.48;-20.36;-70.35
2.61;-7.62;-26.35;1.63;-19.49;-46.17
9.04;-0.33;0.22;-5.66;-14.70;-37.24
-2.29;5.23;-1.31;-6.43;-14.70;16.66
1.74;3.70;1.09;-13.72;-22.00;37.68
-4.68;1.20;8.28;-13.72;-46.17;42.47
-0.65;6.10;13.94;-24.94;-34.09;48.90
-0.65;6.10;14.81;-10.45;-19.49;56.19
-7.08;3.70;25.26;-8.06;1.42;36.05
-6.32;6.10;13.94;-15.35;17.53;65.88
-5.44;6.10;13.94;-12.85;27.22;63.49
-3.81;6.10;9.15;-3.27;32.02;32.78
-5.44;-4.36;7.51;2.40;34.41;6.21
-5.44;2.07;5.12;12.09;36.81;-10.67
3.38;-3.59;-0.54;17.75;40.08;-32.45
-32.89;1.20;-6.21;22.54;28.75;-39.64
-13.50;-0.33;-33.54;17.75;5.44;-43.67
9.04;-6.86;-14.27;17.75;-15.46;-39.64
5.01;-1.20;-15.03;10.45;-43.67;-34.85
4.25;-3.59;-19.06;9.69;-18.73;-63.82
9.04;-4.36;-21.45;10.45;-9.91;-59.02
4.25;-4.36;-7.84;-0.76;-7.51;-30.82
3.38;-3.59;-6.21;3.27;-10.67;-2.61
-2.29;-1.20;-23.96;-5.66;-11.43;23.96
-0.65;2.07;5.12;-12.85;-9.91;33.65
2.61;5.23;4.25;-24.18;-30.82;50.53
-4.68;4.46;11.54;8.06;-5.01;49.77
-4.68;2.07;9.91;-10.45;1.42;53.80
-8.71;6.10;12.31;-11.33;15.14;71.44
1.74;6.10;14.81;-12.85;18.30;66.65
-0.65;6.10;29.29;-13.72;10.24;55.43
-3.81;2.83;9.91;-1.63;5.44;33.65
-0.65;4.46;11.54;-0.00;-11.43;-5.01
-0.65;-7.62;-4.57;-2.40;-13.94;-19.60
3.38;-1.20;-2.94;-13.72;-46.17;-34.85
2.61;-7.62;-5.34;12.09;-29.19;-33.21
-21.56;-5.23;-9.37;12.09;-15.46;-31.58
10.67;-2.83;-16.66;17.75;7.84;-9.04
6.64;-7.62;-15.90;16.88;27.22;-38.88
3.38;-6.86;-11.00;15.35;31.25;-56.63
9.04;-6.86;-11.87;20.15;31.25;-57.39
3.38;-4.36;-6.21;6.43;20.69;-34.85
2.61;5.23;-0.54;7.30;5.44;-7.51
-11.11;-1.20;1.09;-8.06;-6.64;18.30
-7.08;5.23;5.12;4.03;-13.07;38.44
-2.29;6.10;10.78;-0.00;-12.31;48.90
-4.68;0.44;11.54;-12.85;6.21;54.56
5.77;5.23;13.94;-12.09;2.18;56.19
-7.84;6.10;10.78;-13.72;0.54;54.56
-18.30;4.46;14.81;-13.72;-24.39;55.43
-5.44;3.70;13.94;-15.35;-38.11;61.86
1.74;9.26;12.31;-12.85;-33.21;28.75
1.74;6.10;3.48;-8.06;-37.24;-7.51
-1.42;6.10;-0.54;4.79;-24.39;-25.16
4.25;-2.83;-2.94;1.63;-3.48;-43.67
5.01;-5.23;-12.63;11.33;3.05;-48.57
2.61;-9.26;-11.87;16.12;3.81;-47.70
7.41;-6.86;-17.42;13.72;31.25;-39.64
17.10;-7.62;-17.42;16.12;14.27;-34.09
3.38;-4.36;-12.63;14.48;18.30;-61.42
9.04;-1.96;-14.27;12.85;15.90;-59.79
3.38;-2.83;-6.21;10.45;16.66;-38.11
3.38;14.16;-0.54;1.63;20.69;-4.25
2.61;0.44;-0.54;-0.76;24.72;20.69
-5.44;-1.20;-7.84;-4.03;19.17;43.34
-32.89;6.10;11.54;-8.06;14.27;49.77
-3.81;3.70;10.78;-8.06;-3.48;60.22
-7.08;2.07;16.33;1.63;5.44;54.56
-1.42;18.19;13.94;-6.43;-1.85;54.56
-4.68;6.10;13.18;-0.00;-5.01;72.31
-26.35;6.86;21.24;-12.09;-3.48;73.07
0.22;6.86;4.25;-12.85;3.81;32.02
-0.65;3.70;8.28;-3.27;21.56;3.05
0.98;1.20;-4.57;7.30;23.96;-20.36
1.74;0.44;-2.18;11.33;15.90;-48.57
6.64;-5.23;-7.84;12.85;4.57;-68.72
3.38;1.20;-12.63;14.48;-10.67;-55.76
6.64;-5.23;-15.90;16.88;-48.57;-54.23
12.31;-4.36;-1.31;12.09;-43.67;-59.79
9.04;-9.26;-17.42;13.72;-46.94;-75.90
5.01;-6.86;-15.03;12.09;-44.54;-74.38
3.38;-4.36;-6.21;1.63;-38.11;-46.17
-23.20;-24.50;-3.81;-1.63;-23.52;-10.67
0.98;-1.96;-1.31;-0.76;-6.64;18.30
-7.08;3.70;1.09;-27.44;3.05;36.81
-7.84;6.10;5.12;-14.48;12.63;52.93
-3.05;-12.41;8.28;-15.35;26.35;54.56
-8.71;1.20;11.54;-12.09;31.25;60.22
-10.35;6.10;10.78;20.15;31.25;62.62
-8.71;8.49;1.09;-10.45;30.38;89.19
-7.84;6.10;13.94;-13.72;15.90;65.01
-1.42;3.70;9.91;-4.79;16.66;28.75
-3.05;5.23;7.51;-0.76;4.57;-2.61
3.38;2.07;5.12;9.69;5.44;-21.13
4.25;0.44;-2.94;48.35;-25.16;-36.48
29.19;1.20;-4.57;27.33;3.81;-42.14
20.36;-6.86;-11.87;16.12;7.84;-38.11
3.38;-5.99;-14.27;15.35;19.17;-17.10
-2.29;-5.23;-15.03;12.09;6.21;-36.48
6.64;-5.99;-15.03;11.33;20.69;-36.48
4.25;-6.86;-12.63;12.09;14.27;-42.91
3.38;-1.20;-4.57;6.43;-6.64;-62.29
0.98;-3.59;-2.94;0.76;-24.39;-9.04
-3.81;3.70;-0.54;1.63;-46.94;14.27
-2.29;6.10;5.12;-8.06;-57.39;31.25
-4.68;6.10;9.91;-13.72;-51.73;39.31
-35.28;2.83;8.28;-19.38;-26.03;40.84
0.98;-1.96;24.39;-17.75;-17.97;34.41
1.74;3.70;11.54;-13.72;-25.16;45.74
-6.32;6.10;7.51;-20.91;5.44;53.80
-7.08;6.10;17.21;-25.81;28.75;57.83
11.43;-1.20;4.25;-17.75;13.50;28.75
0.98;1.20;2.72;28.97;17.53;3.05
-0.65;-2.83;1.85;1.63;17.53;-22.76
5.77;-1.20;-1.31;16.12;31.25;-45.30
10.67;-1.20;-8.60;15.35;29.62;-48.57
5.77;-6.86;-7.84;24.94;17.53;-39.64
9.04;-7.62;-10.24;26.57;15.90;-44.54
-8.71;-6.86;-14.27;28.97;-0.22;-31.58
2.61;-4.36;-14.27;22.54;-8.28;-55.76
3.38;-2.83;-15.90;44.32;-1.85;-62.29
3.38;-4.36;-8.60;11.33;3.05;-28.42
1.74;-4.36;1.09;6.43;8.60;-4.25
-0.65;5.23;4.25;-28.21;5.44;24.72
3.38;6.10;4.25;-8.82;5.44;43.34
-4.68;5.23;6.75;-6.43;2.18;51.40
-7.84;4.46;9.91;-29.84;2.18;46.50
-1.42;5.23;12.31;-11.33;-6.64;54.56
-7.84;6.10;12.31;-11.33;-1.85;48.13
0.22;6.10;11.54;-13.72;-9.04;56.19
-5.44;7.73;13.94;-12.85;7.08;56.19
15.46;4.46;10.78;-9.69;-5.01;27.99
0.98;4.46;9.15;-3.27;-2.61;-5.88
-13.50;-1.20;4.25;-1.63;3.81;-24.39
4.25;1.20;-4.57;12.85;13.50;-40.51
5.01;0.44;-7.84;24.18;13.50;-48.57
16.33;-4.36;-11.87;24.18;4.57;-46.17
4.25;-9.26;-18.30;17.75;-11.43;-13.94
5.77;-5.23;-15.03;11.33;-18.73;-44.54
3.38;-4.36;-14.27;-17.75;-20.36;-54.23
1.74;-1.20;-14.27;4.79;-25.16;-55.76
2.61;-1.96;-35.17;5.66;-26.03;-13.94
4.25;-1.96;-0.54;-1.63;-20.36;-2.61
1.74;3.70;-0.54;-1.63;-3.48;23.96
-35.28;5.23;5.12;-9.69;5.44;39.31
11.43;9.26;11.54;-8.06;11.11;49.77
-1.42;-0.33;7.51;-12.85;9.47;52.93
-5.44;2.83;12.31;-5.66;17.53;56.95
-6.32;4.46;26.90;-10.45;18.30;55.43
-4.68;6.10;19.60;-6.43;30.38;70.68
-5.44;3.70;16.33;-12.85;40.08;61.86
-3.81;3.70;15.57;-3.27;33.65;55.43
3.38;-4.36;9.15;-0.76;18.30;0.54
3.38;5.23;2.72;4.03;3.81;-24.39
3.38;-5.99;-7.84;11.33;-14.70;-41.27
5.77;-3.59;-11.00;12.09;-18.73;-48.57
8.28;-5.23;-4.57;12.85;-16.33;-69.48
4.25;-5.99;-11.00;14.48;-22.00;-46.94
9.04;-4.36;-32.02;17.75;-27.55;-33.21
8.28;-1.96;-15.90;16.12;-26.03;-69.48
10.67;-5.23;-11.87;9.69;-32.45;-62.29
3.38;-4.36;-0.54;8.06;-24.39;-40.51
1.74;-2.83;-4.57;27.33;-21.13;-7.51
-1.42;-5.23;-0.54;4.03;-32.45;15.14
-10.35;3.70;3.48;-4.79;3.05;38.44
-9.47;6.10;8.28;-8.06;18.30;36.05
-6.32;3.70;16.33;-12.85;22.32;52.93
-5.44;5.23;12.31;1.63;16.66;54.56
-9.47;6.10;11.54;-12.85;7.84;52.93
-0.65;6.10;12.31;-15.35;17.53;63.49
-11.11;6.10;13.94;-11.33;16.66;53.80
-5.44;6.10;11.54;-2.40;3.05;1.42
-4.68;2.07;-7.84;4.03;0.54;-4.25
3.38;2.07;-0.54;3.27;5.44;-22.76
-1.42;0.44;-0.54;9.69;5.44;-28.42
5.01;1.20;-9.37;23.30;14.27;-44.54
8.28;-3.59;-12.63;24.18;8.60;-44.54
3.38;-5.23;-15.03;33.87;10.24;-38.11
9.04;-6.86;-15.90;19.38;7.08;-35.61
5.77;-5.23;-15.03;16.88;7.84;-50.97
8.28;-5.99;-18.30;17.75;4.57;-60.66
3.38;-5.99;-10.24;12.09;3.81;-26.79
2.61;1.20;-0.54;3.27;23.96;-0.22
-4.68;5.23;1.85;-0.00;4.57;27.99
-3.81;2.07;9.91;-5.66;-2.61;42.47
16.33;4.46;8.28;-12.85;-5.88;47.37
-1.42;4.46;12.31;-5.66;-9.04;54.56
-0.65;6.10;12.31;-14.48;-11.43;56.95
-2.29;6.86;10.78;-12.09;-9.04;42.47
-7.08;4.46;9.91;-13.72;-16.33;42.47
-8.71;7.73;12.31;-13.72;-5.01;56.95
-8.71;4.46;17.21;-6.43;-10.67;23.96
3.38;6.10;5.12;-3.27;7.08;-7.51
1.74;-1.20;0.22;20.15;-15.46;-22.76
3.38;-1.20;-0.54;4.79;7.08;-47.70
1.74;2.07;-10.24;12.85;15.90;-46.17
1.74;-9.26;-12.63;12.85;15.90;-52.60
5.77;-6.86;-18.30;21.78;7.08;-22.76
3.38;-6.86;-11.00;14.48;-1.85;-43.67
5.01;-11.65;-15.03;13.72;-3.48;-55.76
10.67;-5.23;2.72;12.09;-15.46;-62.29
2.61;-5.23;-7.84;2.40;-22.00;-33.21
4.25;1.20;-4.57;-0.76;-30.82;-5.88
1.74;1.20;-23.96;-8.82;-18.73;21.56
-4.68;2.07;7.51;-8.06;-20.36;34.41
-7.08;6.10;7.51;-13.72;-1.85;45.74
-1.42;2.83;11.54;-13.72;7.08;46.50
-7.08;6.86;10.78;10.45;13.50;54.56
-9.47;5.23;12.31;-8.82;19.17;54.56
-7.08;6.86;11.54;-8.06;25.59;65.88
-5.44;2.07;13.94;12.09;27.22;62.62
-6.32;3.70;17.21;-0.76;19.93;50.53
1.74;1.20;9.91;0.76;17.53;3.05
-0.65;2.07;3.48;12.85;15.90;-22.76
9.04;1.20;-6.21;12.85;5.44;-42.91
7.41;1.20;-11.00;7.30;17.53;-35.61
8.28;-3.59;-2.94;16.12;4.57;-37.24
13.07;-5.99;-11.87;17.75;0.54;-45.30
11.43;-5.23;-15.90;22.54;-6.64;-42.91
1.74;-5.23;-2.18;24.94;-2.61;-68.72
2.61;-6.86;-15.03;17.75;-9.04;-72.75
3.38;-5.99;-12.63;-2.40;-24.39;-39.64
0.98;1.20;-6.21;-2.40;-29.19;-13.94
0.98;6.10;-0.54;-0.76;-25.16;11.87
-4.68;3.70;3.48;-13.72;-21.13;40.84
-1.42;5.23;5.88;-15.35;-16.33;44.10
-8.71;3.70;7.51;-14.48;3.81;49.77
-7.08;0.44;10.78;-18.51;5.44;54.56
-11.11;6.10;7.51;-16.12;1.42;45.74
-10.35;6.10;13.18;-16.88;-1.85;70.68
-5.44;5.23;20.36;-13.72;0.54;65.01
-5.44;-1.20;13.18;-11.33;4.57;33.65
-1.42;2.07;7.51;-1.63;6.21;0.54
2.61;6.86;7.51;3.27;9.47;-22.76
3.38;6.10;-4.57;4.79;10.24;-46.94
7.41;-3.59;-10.24;30.60;11.11;-39.64
9.80;-8.39;-22.32;16.12;14.27;-41.27
10.67;-6.86;-16.66;19.38;5.44;-41.27
6.64;-9.26;-16.66;12.85;-8.28;-37.24
6.64;-10.89;-14.27;12.85;-6.64;-54.23
8.28;-7.62;-10.24;16.88;2.18;-59.02
4.25;-1.96;-9.37;8.06;19.17;-37.24
5.77;2.07;-4.57;-6.43;-2.61;-5.88
-3.81;-1.20;-1.31;-3.27;2.18;18.30
-2.29;2.83;17.21;-3.27;1.42;37.68
-3.81;4.46;7.51;-4.79;16.66;42.47
1.74;3.70;10.78;-3.27;3.05;47.37
-7.08;2.07;9.91;-4.79;-0.22;52.16
-8.71;6.10;11.54;-14.48;-2.61;50.53
-7.84;6.86;11.54;-13.72;-1.85;62.62
-7.84;11.76;12.31;-18.51;-2.61;61.86
-3.81;4.46;12.31;-10.45;3.81;27.99
-1.42;6.10;8.28;-0.76;17.53;0.54
3.38;0.44;4.25;11.33;19.93;-21.13
3.38;1.20;-1.31;10.45;14.27;-40.51
3.38;-5.99;-9.37;19.38;-3.48;-41.27
10.67;-5.99;-10.24;16.12;5.44;-40.51
6.64;-5.23;-9.37;12.09;-5.88;-39.64
4.25;-1.96;-13.39;20.15;0.54;-43.67
8.28;-7.62;-13.39;17.75;-7.51;-59.02
7.41;-1.20;-9.37;11.33;-13.07;-62.29
3.38;-4.36;-12.63;0.76;-21.13;-40.51
-7.08;-4.36;-2.18;0.76;-31.58;-7.51
-1.42;-1.20;-0.54;-4.03;-26.79;19.17
5.77;4.46;0.22;-13.72;-21.13;39.31
-2.29;7.73;3.48;-12.09;-9.91;44.10
-4.68;6.10;29.29;-13.72;-3.48;45.74
-5.44;5.23;11.54;-15.35;4.57;56.95
-3.81;6.10;25.26;-21.78;7.84;79.50
-3.81;3.70;13.18;-10.45;19.17;61.86
-5.44;4.46;16.33;-1.63;19.17;60.22
-4.68;6.10;12.31;-12.85;18.30;33.65
-3.81;-3.59;5.88;37.90;14.27;0.54
-1.42;-1.20;3.48;6.43;15.14;-16.33
-0.65;-4.36;-2.94;14.48;9.47;-39.64
3.38;-3.59;-2.18;20.15;25.59;-34.85
2.61;-1.96;-8.60;12.85;18.30;-38.11
7.41;-2.83;-9.37;22.54;12.63;-37.24
14.70;-5.23;-11.87;22.54;4.57;-30.82
5.77;-2.83;-13.39;14.48;-8.28;-54.23
10.67;-8.39;-14.27;14.48;-20.36;-81.57
4.25;-4.36;-2.94;6.43;-19.49;-27.55
-3.81;-2.83;-4.57;-3.27;-2.61;-8.28
-1.42;0.44;-1.31;-2.40;-14.70;19.93
-7.84;-0.33;2.72;-12.85;-5.88;36.05
-3.81;3.70;9.15;-9.69;5.44;46.50
0.98;2.07;9.15;-19.38;18.30;49.77
-7.84;6.10;13.18;-15.35;19.93;27.22
-3.81;6.10;13.18;-13.72;23.20;40.84
0.98;1.20;17.21;-12.09;47.37;59.46
-4.68;6.10;16.33;-5.66;-20.36;56.95
-15.14;6.10;13.18;-12.85;-6.64;21.56
-4.68;4.46;10.78;-0.76;-28.42;16.66
2.61;2.83;0.22;4.79;-45.30;-22.76
3.38;-2.83;-5.34;12.09;-46.17;-48.57
3.38;-4.36;-15.90;19.38;-41.27;-41.27
5.77;-2.83;-11.00;17.75;-23.52;-50.20
7.41;-6.86;-14.27;16.12;-6.64;-43.67
3.38;-6.86;-11.87;12.09;15.14;-46.94
5.77;-5.99;-12.63;11.33;26.35;-59.79
4.25;-7.62;-15.90;11.33;31.25;-63.82
-1.42;-6.86;-11.00;-0.76;28.75;-34.85
-3.81;-1.20;-1.31;1.63;19.17;-9.04
-0.65;-2.83;1.09;-13.72;15.90;23.20
-3.81;2.07;7.51;-0.76;5.44;43.34
-2.29;5.23;20.36;-4.03;3.81;52.16
-1.42;6.10;7.51;-11.33;-5.88;53.80
-4.68;-0.33;11.54;-12.09;-14.70;61.86
-4.68;6.10;9.91;11.33;-23.52;52.93
-6.32;5.23;13.18;-13.72;-24.39;58.59
-4.68;3.70;17.21;-33.87;-14.70;60.22
-5.44;5.23;1.09;-8.82;-5.88;23.96
3.38;5.23;5.12;1.63;5.44;-7.51
-0.65;5.23;5.12;12.09;11.11;-26.79
3.38;-5.23;-1.31;15.35;12.63;-38.11
5.77;-3.59;-5.34;12.85;15.90;-44.54
6.64;2.07;-8.60;13.72;14.27;-36.48
3.38;-10.02;-26.35;14.48;13.50;-39.64
4.25;-4.36;-16.66;9.69;5.44;-37.24
8.28;-8.39;-13.39;9.69;5.44;-50.97
1.74;-10.89;-18.30;13.72;-1.85;-61.42
4.25;-1.96;-14.27;10.45;-1.85;-36.48
3.38;1.20;-2.18;-6.43;-10.67;-1.85
-15.14;-1.96;-0.54;-24.18;4.57;16.66
2.61;0.44;-12.63;-8.82;6.21;52.16
-1.42;4.46;11.54;-2.40;4.57;50.53
2.61;0.44;16.33;-5.66;-2.61;42.47
-1.42;6.10;12.31;-8.06;-5.01;69.91
-10.35;5.23;17.97;-11.33;-7.51;52.16
0.22;6.10;12.31;-11.33;-8.28;30.38
2.61;6.10;16.33;-13.72;-9.91;56.19
-4.68;6.10;14.81;-9.69;-7.51;36.81
0.98;-1.20;7.51;-0.76;-5.01;-10.67
-2.29;2.83;2.72;-1.63;-5.88;-52.60
4.25;4.46;-0.54;9.69;0.54;-42.91
-0.65;-3.59;-7.84;12.09;-21.13;-51.73
13.07;-4.36;-9.37;16.88;-2.61;-50.97
3.38;-3.59;8.28;12.09;3.05;-46.17
-21.56;-5.99;-20.69;12.09;-0.22;-39.64
8.28;-6.86;-11.00;16.12;3.81;-52.60
7.41;-5.23;-9.37;-12.09;5.44;-59.79
-10.35;-2.83;-9.37;6.43;5.44;-30.82
0.22;2.07;-4.57;1.63;5.44;-0.98
0.98;-1.20;-0.54;1.63;12.63;19.17
0.98;5.23;4.25;8.06;3.05;36.81
-3.81;6.10;11.54;9.69;5.44;54.56
-8.71;6.10;22.00;-13.72;5.44;54.56
-26.35;4.46;12.31;-8.82;22.32;58.59
-40.08;6.86;9.91;-13.72;7.84;47.37
-4.68;6.86;11.54;-13.72;-3.48;58.59
-2.29;6.86;17.97;-18.51;-12.31;54.56
-0.65;3.70;11.54;-12.09;-35.61;36.05
3.38;5.23;11.54;-6.43;-41.27;-5.88
0.98;-5.23;-0.54;-4.79;-33.21;-23.52
4.25;-2.83;-4.57;8.82;-21.13;-49.33
4.25;-5.23;-12.63;1.63;-33.21;-48.57
-3.81;-2.83;-12.63;16.12;4.57;-48.57
-10.35;-1.96;-14.27;17.75;13.50;-48.57
-11.87;-6.86;-13.39;-0.76;17.53;-39.64
3.38;-6.86;-27.99;20.91;18.30;-49.33
31.58;-8.39;-20.69;16.12;20.69;-55.76
3.38;-2.83;-9.37;12.09;27.99;-25.16
-5.44;-2.83;-5.34;1.63;35.28;-5.88
3.38;-4.36;-2.18;-0.00;20.69;23.20
26.79;4.46;1.85;-8.06;16.66;44.10
0.98;1.20;9.91;-11.33;-2.61;43.34
-7.08;6.10;11.54;-8.06;-31.58;52.16
-0.65;6.10;12.31;-14.48;-14.70;57.83
-7.84;6.10;11.54;-44.32;-14.70;48.90
-12.74;6.86;13.18;-12.85;-20.36;56.95
-3.81;8.49;14.81;-12.85;-20.36;54.56
-0.65;5.23;13.18;-12.09;-1.85;23.96
10.67;-2.83;8.28;-13.72;-9.91;-5.88
-10.35;1.20;5.12;2.40;-10.67;-26.79
13.83;-2.83;1.85;13.72;-5.88;-46.17
-5.44;-7.62;-1.31;12.09;5.44;-49.33
3.38;-2.83;-8.60;20.15;7.08;-42.91
10.67;-7.62;-13.39;16.88;4.57;-47.70
-8.71;-8.39;-14.27;12.09;3.05;-38.11
9.04;-6.86;-11.00;12.09;5.44;-63.05
3.38;-2.83;-16.66;12.85;-2.61;-67.84
-3.81;-4.36;-9.37;8.06;-8.28;-35.61
0.22;-2.83;-3.81;1.63;-12.31;-11.54
-10.35;-2.83;1.09;25.81;1.42;16.66
-19.93;4.46;0.22;2.40;-3.48;42.47
12.31;4.46;1.09;-17.75;1.42;49.77
17.10;3.70;5.12;-37.90;3.05;54.56
-11.87;-8.39;12.31;-16.12;5.44;54.56
5.01;6.10;12.31;-9.69;31.25;51.40
-19.17;5.23;13.18;-16.88;3.05;80.37
-14.27;6.10;10.78;-13.72;3.05;63.49
-1.42;6.10;24.39;-6.43;3.81;32.78
-27.99;6.10;8.28;0.76;11.11;2.18
-0.65;0.44;6.75;-28.97;19.17;-21.13
4.25;0.44;-0.54;6.43;19.17;-21.13
-11.11;-2.83;-7.84;-16.12;15.14;-41.27
5.01;-7.62;-11.87;12.09;5.44;-44.54
12.31;-9.26;-15.90;16.12;-4.25;-41.27
4.25;-1.96;-13.39;16.88;-2.61;-36.48
3.38;-6.86;-15.03;12.09;27.22;-56.63
5.01;-6.86;-19.06;16.88;3.05;-81.57
3.38;-2.83;-9.37;12.09;-9.91;-32.45
4.25;-4.36;-7.84;6.43;-9.91;-5.01
0.98;2.07;-0.54;4.79;3.81;17.53
-4.68;1.20;-0.54;-5.66;6.21;34.41
-8.71;3.70;11.54;-11.33;-6.64;41.71
-0.65;5.23;13.18;-13.72;-19.49;40.84
-6.32;5.23;-1.31;-11.33;-20.36;54.56
-2.29;2.07;-8.60;-9.69;-21.13;47.37
-7.08;6.10;11.54;-13.72;-14.70;58.59
-8.71;6.10;14.81;-26.57;-8.28;56.95
-7.84;6.10;17.97;-15.35;-2.61;28.75
-2.29;4.46;7.51;-9.69;4.57;-0.98
29.19;5.23;6.75;4.03;-7.51;-22.00
2.61;-5.23;-1.31;10.45;7.84;-22.76
0.98;-2.83;-7.84;10.45;16.66;-43.67
1.74;-1.96;-11.00;23.30;15.14;-42.91
5.01;-6.86;-17.42;19.38;8.60;-38.11
0.98;-11.65;-16.66;20.15;5.44;-33.21
11.43;-6.86;-11.87;19.38;5.44;-50.97
-27.22;-7.62;-14.27;12.09;3.05;-65.45
9.04;-7.62;-11.87;12.85;-2.61;-26.79
-1.42;-1.96;-4.57;-1.63;-6.64;-5.88
-2.29;3.70;-0.54;-1.63;-9.91;15.14
-1.42;3.70;3.48;-12.85;-14.70;31.25
-3.81;6.10;5.12;-13.72;-10.67;44.10
-7.08;6.86;5.12;-15.35;-5.88;50.53
-2.29;6.10;11.54;-18.51;-5.88;54.56
-2.29;6.10;12.31;-12.85;6.21;54.56
-0.65;6.10;-0.54;-13.72;9.47;65.88
-3.81;2.07;14.81;-13.72;16.66;66.65
-7.84;6.10;14.81;-1.63;14.27;36.81
-1.42;3.70;12.31;24.18;7.84;-1.85
0.22;1.20;-0.54;1.63;5.44;-20.36
1.74;0.44;-0.54;-15.35;6.21;-38.11
34.85;2.83;-4.57;30.60;5.44;-46.94
7.41;-1.96;-8.60;16.12;-5.01;-43.67
25.16;-6.86;-20.69;19.38;-6.64;-42.91
13.83;-10.89;-15.90;19.38;-11.43;-40.51
5.77;-6.86;-8.60;17.75;-17.97;-52.60
5.77;-6.86;-11.87;14.48;-0.22;-59.02
-29.62;1.20;-11.87;12.09;23.20;-25.16
2.61;-2.83;-1.31;3.27;41.71;1.42
-1.42;-1.96;-1.31;-0.76;34.41;42.47
0.98;6.10;-0.54;1.63;14.27;44.10
-1.42;4.46;7.51;-0.00;20.69;45.74
-5.44;2.07;10.78;-12.09;-0.22;55.43
-7.08;4.46;13.94;-24.18;-25.16;55.43
7.41;0.44;13.18;-13.72;-40.51;66.65
-4.68;6.86;13.94;-25.81;-42.91;60.22
-7.84;5.23;16.33;-17.75;-46.17;53.80
-14.27;5.23;12.31;-17.75;-41.27;20.69
-2.29;-1.20;7.51;-14.48;-35.61;-17.10
2.61;2.07;-11.00;-4.79;-27.55;-34.85
-3.81;-5.23;-1.31;5.66;-19.49;-47.70
-1.42;1.20;-8.60;11.33;10.24;-48.57
3.38;-2.83;-12.63;12.09;5.44;-55.76
36.48;-2.83;-14.27;17.75;11.11;-43.67
7.41;-8.39;-19.06;24.94;18.30;-43.67
3.38;-7.62;-14.27;15.35;18.30;-49.33
7.41;-7.62;-9.37;16.12;11.87;-59.79
3.38;-2.83;-5.34;12.85;17.53;-30.82
3.38;-0.33;-5.34;12.09;5.44;3.05
0.98;-0.33;1.85;4.03;5.44;28.75
-9.47;1.20;5.88;-4.03;13.50;45.74
3.38;6.86;12.31;-11.33;17.53;44.10
-1.42;6.10;9.91;13.72;13.50;56.95
-9.47;6.86;14.81;-36.26;11.11;62.62
-5.44;6.10;15.57;-21.78;7.08;58.59
-4.68;6.10;14.81;-9.69;3.05;63.49
-7.84;7.73;21.24;-14.48;3.05;65.01
-5.44;5.23;12.31;-22.54;5.44;31.25
3.38;4.46;11.54;0.76;13.50;19.93
-1.42;-1.20;7.51;11.33;17.53;-20.36
9.04;0.44;-1.31;12.09;5.44;-37.24
8.28;-5.99;-7.84;16.12;10.24;-46.94
5.77;-4.36;-14.27;20.15;19.17;-43.67
5.01;-2.83;-15.03;16.12;-4.25;-46.17
3.38;-3.59;-18.30;22.54;3.05;-34.09
6.64;-3.59;-15.90;4.79;2.18;-59.02
3.38;-7.62;-14.27;8.06;-3.48;-70.35
2.61;-6.86;-11.87;-0.76;-11.43;-35.61
2.61;3.70;-4.57;12.09;5.44;-10.67
0.98;5.23;0.22;0.76;-19.49;3.81
-4.68;2.83;4.25;-8.82;-20.36;28.75
-1.42;2.83;9.91;-11.33;-20.36;40.84
-2.29;6.10;12.31;-31.47;-12.31;41.71
-5.44;5.23;11.54;-15.35;-17.97;47.37
-21.56;6.10;16.33;-18.51;-8.28;49.77
-8.71;6.10;17.97;-13.72;-11.43;60.22
-9.47;5.23;13.18;-15.35;-14.70;59.46
-13.50;6.10;14.81;-13.72;-4.25;28.75
-0.65;4.46;5.12;-8.06;-6.64;1.42
3.38;-1.20;-0.54;28.97;3.81;-26.03
-0.65;-0.33;-2.18;12.85;7.84;-39.64
7.41;-4.36;-7.84;17.75;10.24;-36.48
6.64;2.07;9.91;16.12;6.21;-41.27
7.41;-6.86;-17.42;20.91;6.21;-34.09
7.41;-3.59;-24.72;14.48;13.50;-34.09
5.77;-1.20;-13.39;17.75;16.66;-48.57
5.77;-10.02;-14.27;-16.12;14.27;-63.82
4.25;-7.62;-12.63;10.45;15.90;-35.61
1.74;-4.36;-2.94;-0.00;11.11;-2.61
-2.29;-1.20;-0.54;0.76;10.24;19.17
2.61;6.10;4.25;-11.33;4.57;36.81
-3.81;6.10;7.51;-13.72;5.44;37.68
-4.68;-1.20;9.15;-9.69;6.21;47.37
-5.44;5.23;12.31;-5.66;6.21;54.56
0.98;2.83;10.78;-8.06;7.84;52.16
-7.08;2.07;12.31;-10.45;3.81;62.62
-6.32;6.10;14.81;-13.72;-1.85;66.65
-7.84;6.10;12.31;-12.85;-2.61;32.78
1.74;0.44;-0.54;-5.66;11.11;4.57
6.64;2.07;-0.54;-12.09;16.66;-18.73
5.77;2.07;-1.31;-0.00;-7.51;-41.27
3.38;-1.96;-7.84;12.85;-13.07;-46.17
5.77;-1.96;-20.69;9.69;-25.16;-48.57
2.61;-2.83;-15.03;24.18;-37.24;-44.54
8.28;-14.05;-15.03;14.48;-50.97;-42.14
4.25;-5.99;-16.66;13.72;-53.36;-59.02
7.41;-6.86;2.72;12.09;-35.61;-65.45
4.25;-1.20;-9.37;4.79;-16.33;-35.61
3.38;-1.96;0.22;4.03;22.32;-2.61
-3.81;3.70;0.22;0.76;31.25;11.87
-2.29;4.46;1.85;-6.43;31.25;41.71
-3.81;6.10;8.28;-11.33;56.95;50.53
-3.81;4.46;17.97;-5.66;74.71;53.80
-2.29;6.10;13.18;-8.06;56.95;54.56
-3.81;6.10;13.18;-8.06;31.25;54.56
-3.81;7.73;14.81;-10.45;1.42;69.91
-5.44;7.73;13.18;-13.72;-20.36;55.43
-5.44;6.10;17.21;-9.69;-38.11;28.75
-1.42;5.23;1.85;-6.43;-43.67;-9.91
3.38;2.07;1.09;-5.66;-22.76;-21.13
3.38;3.70;-1.31;0.76;-35.61;-38.11
-9.47;-6.86;-2.94;13.72;-16.33;-49.33
7.41;-5.99;-12.63;9.69;-1.85;-53.36
9.04;-6.86;-13.39;11.33;17.53;-47.70
4.25;-9.26;12.31;14.48;2.18;-44.54
2.61;-4.36;-14.27;15.35;-1.85;-60.66
5.01;-4.36;-14.27;-12.85;-5.88;-71.87
4.25;-4.36;-2.94;6.43;-9.91;-71.11
0.98;-5.23;-5.34;1.63;3.05;-9.91
-0.65;0.44;-2.94;0.76;5.44;4.57
0.22;4.46;6.75;-8.06;6.21;34.41
-7.08;3.70;5.12;-3.27;13.50;43.34
-0.65;1.20;9.91;-1.63;14.27;49.77
-3.81;8.49;17.97;-9.69;13.50;55.43
-7.84;4.46;13.18;-12.85;11.11;54.56
-4.68;6.10;14.81;-30.60;6.21;68.28
-7.08;8.49;13.18;-8.82;4.57;71.44
-1.42;6.10;12.31;-16.12;0.54;41.71
-2.29;5.23;-20.69;-9.69;-0.22;3.05
2.61;2.07;5.12;6.43;9.47;-13.07
3.38;-1.20;-2.94;11.33;-5.88;-36.48
5.77;-1.96;-11.00;13.72;-5.01;-47.70
3.38;-2.83;-11.00;19.38;4.57;-46.17
11.43;-5.99;-11.87;17.75;6.21;-36.48
5.01;-5.99;-18.30;19.38;8.60;-34.85
3.38;-4.36;-14.27;12.09;19.17;-48.57
5.01;-8.39;-15.90;12.09;17.53;-63.05
2.61;-5.23;-15.90;11.33;20.69;-40.51
2.61;1.20;-2.18;6.43;15.14;-9.91
4.25;-5.23;-0.54;10.45;16.66;3.81
1.74;5.23;5.88;-8.06;5.44;36.81
-0.65;6.10;5.12;-4.03;-7.51;54.56
-2.29;6.10;9.91;-12.09;-15.46;49.77
0.98;3.70;14.81;-13.72;-38.11;54.56
3.38;3.70;12.31;-22.54;-33.21;51.40
0.22;6.10;11.54;-13.72;-30.82;56.95
-7.84;3.70;11.54;-23.41;-24.39;65.88
-4.68;6.10;11.54;-14.48;-12.31;32.02
-0.65;6.10;11.54;-1.63;-8.28;3.05
0.22;2.83;5.12;-1.63;-24.39;-22.76
0.22;-1.20;-0.54;3.27;20.69;-46.94
3.38;-4.36;-6.21;12.09;9.47;-42.91
1.74;-2.83;-9.37;-11.33;13.50;-45.30
4.25;1.20;-10.24;20.15;12.63;-36.48
3.38;-4.36;-14.27;16.12;9.47;-38.11
3.38;-2.83;-14.27;19.38;5.44;-52.60
9.04;-5.23;-7.84;12.09;5.44;-61.42
16.33;0.44;-11.00;12.09;17.53;-31.58
-1.42;-1.96;0.22;5.66;27.99;1.42
-2.29;0.44;-0.54;-0.76;27.99;17.53
-36.05;3.70;8.28;-0.76;29.62;39.31
-7.08;3.70;5.12;-8.82;23.20;50.53
-0.65;6.10;6.75;-8.06;5.44;52.93
2.61;2.07;11.54;-8.06;-17.97;55.43
-11.87;7.73;11.54;-13.72;-35.61;46.50
2.61;5.23;10.78;-13.72;-53.36;54.56
-0.65;6.10;13.18;-9.69;-59.02;57.83
-4.68;1.20;13.18;-37.03;-33.21;32.78
2.61;4.46;4.25;-9.69;-15.46;-9.91
2.61;2.83;3.48;-2.40;-0.22;-22.76
5.01;-2.83;-0.54;11.33;5.44;-41.27
7.41;-1.20;-4.57;-15.35;7.08;-47.70
6.64;-3.59;-10.24;3.27;7.08;-48.57
5.77;-2.83;-13.39;8.06;19.17;-39.64
4.25;-7.62;-14.27;11.33;17.53;-5.88
3.38;-7.62;-15.90;12.09;27.22;-44.54
7.41;-6.86;-15.03;12.09;23.96;-62.29
3.38;-4.36;-7.84;9.69;20.69;-26.79
0.98;3.70;-1.31;4.79;15.90;-1.85
-0.65;0.44;-0.54;8.06;15.90;15.14
-4.68;0.44;0.22;-4.03;19.17;36.81
-7.08;4.46;1.85;-0.76;19.17;45.74
-3.81;3.70;13.94;-12.85;8.60;47.37
-4.68;9.26;9.91;-11.33;-5.01;54.56
-1.42;4.46;11.54;-13.72;-22.76;50.53
-7.08;0.44;13.18;-16.12;-34.85;39.31
0.98;6.10;20.36;-13.72;-41.27;69.04
3.38;6.10;13.94;-13.72;-27.55;39.31
0.98;5.23;9.91;-3.27;8.60;3.81
7.41;5.23;10.78;2.40;19.93;-22.76
5.77;-5.23;0.22;12.09;9.47;-33.21
2.61;-6.86;-11.87;12.09;15.90;-46.17
3.38;-5.23;-9.37;11.33;-8.28;-38.11
13.83;-6.86;-15.03;12.09;-30.82;-49.33
8.28;-6.86;-16.66;16.12;-46.17;-50.97
3.38;-9.26;-12.63;18.51;-46.17;-60.66
29.19;-6.86;-12.63;6.43;-40.51;-76.77
3.38;-6.86;8.28;8.06;-20.36;-55.76
-2.29;-5.99;-7.84;-3.27;2.18;-22.76
-5.44;-1.96;-16.66;-0.76;14.27;7.84
-2.29;1.20;0.22;-5.66;15.14;34.41
-12.74;6.10;13.18;-8.82;18.30;55.43
3.38;2.07;13.18;-8.06;18.30;54.56
-4.68;3.70;11.54;-12.85;15.90;61.86
16.33;2.83;8.28;-12.09;19.17;56.19
-23.20;2.07;12.31;-8.82;19.17;75.47
-4.68;6.10;15.57;17.75;15.90;77.97
-5.44;3.70;11.54;-3.27;17.53;44.10
-16.77;-5.99;9.91;-0.76;15.90;19.17
-3.81;-3.59;4.25;8.06;7.84;-13.94
5.77;2.07;1.85;12.85;7.84;-36.48
5.77;-5.99;-2.94;8.82;5.44;-43.67
5.01;-4.36;-9.37;11.33;2.18;-49.33
5.01;-5.99;-11.87;19.38;-11.43;-48.57
8.28;-1.96;-11.87;46.72;-32.45;-50.97
5.01;-6.86;-11.00;11.33;-5.88;-48.57
9.04;6.10;-12.63;16.88;5.44;-75.14
-0.65;2.07;-7.84;8.06;3.81;-46.94
12.31;-4.36;-1.31;1.63;-2.61;-13.07
5.77;2.07;-0.54;-3.27;5.44;13.50
-5.44;-1.20;9.91;-1.63;5.44;41.71
-30.38;-1.96;3.48;-13.72;5.44;56.95
1.74;4.46;13.18;4.03;19.93;56.19
-3.81;3.70;38.11;-13.72;-14.70;56.19
-7.08;6.86;8.28;-14.48;-17.97;62.62
-15.14;6.10;8.28;-14.48;-29.19;59.46
-5.44;2.83;-11.00;-19.38;-29.19;65.01
-7.08;6.10;9.15;-16.12;-51.73;30.38
-0.65;5.23;8.28;-8.06;-22.00;1.42
3.38;1.20;-1.31;-0.76;-15.46;-26.79
3.38;-1.20;-4.57;12.09;2.18;-40.51
2.61;-5.99;-6.21;13.72;15.14;-47.70
3.38;-1.20;-9.37;23.30;44.87;-48.57
6.64;-8.39;-14.27;19.38;26.35;-49.33
0.98;-1.20;-20.69;30.60;27.22;-43.67
29.95;-2.83;-11.87;14.48;20.69;-48.57
2.61;-2.83;-15.90;14.48;7.84;-68.72
16.33;-4.36;-5.34;33.00;5.44;-44.54
3.38;1.20;-0.54;0.76;-0.22;-25.16
3.38;-1.20;-15.90;1.63;5.44;19.93
0.98;6.10;5.12;3.27;19.17;47.37
-10.35;2.07;5.12;-0.76;17.53;52.16
-5.44;4.46;7.51;-9.69;11.11;53.80
0.98;4.46;12.31;-5.66;0.54;61.86
-0.65;3.70;11.54;-8.06;-11.43;55.43
3.38;6.86;10.78;-13.72;-28.42;65.88
0.98;6.10;14.81;-12.85;-40.51;65.01
-1.42;8.49;14.81;-13.72;-43.67;32.78
-2.29;-0.33;7.51;-4.79;-32.45;-0.98
-0.65;5.23;2.72;-0.00;-12.31;-22.76
-7.08;-1.20;-1.31;8.82;6.21;-22.76
3.38;0.44;-2.94;9.69;18.30;-47.70
28.42;-3.59;-10.24;10.45;32.78;-47.70
3.38;-4.36;-11.87;20.91;22.32;-46.94
29.95;-5.23;-7.84;24.18;23.20;-37.24
5.77;-6.86;-14.27;8.82;19.93;-59.79
4.25;-4.36;-18.30;12.85;14.27;-68.72
3.38;-2.83;-6.21;1.63;5.44;-46.17
5.01;31.91;-2.94;0.76;5.44;-13.94
-1.42;2.07;-0.54;-3.27;3.05;13.50
-4.68;6.10;5.12;-8.06;-3.48;38.44
-0.65;1.20;6.75;-4.79;-2.61;47.37
-0.65;0.44;3.48;-9.69;-3.48;55.43
-4.68;5.23;19.60;-13.72;3.81;40.84
-3.81;6.10;11.54;-13.72;9.47;29.62
-15.14;4.46;10.78;-5.66;7.84;65.88
-7.84;6.10;10.78;-8.82;6.21;66.65
-26.35;2.07;17.21;-13.72;-3.48;38.44
-30.38;2.07;10.78;-0.76;-10.67;4.57
-4.68;3.70;3.48;-1.63;-12.31;-17.10
28.42;-2.83;-0.54;-0.00;-16.33;-37.24
3.38;-5.23;-9.37;12.85;-14.70;-48.57
1.74;-5.23;-12.63;12.09;-10.67;-46.94
5.77;-7.62;-15.90;12.09;-9.04;-48.57
8.28;-6.86;-19.06;12.09;-11.43;-50.20
3.38;-1.96;-11.00;12.09;-16.33;-61.42
3.38;-5.99;-12.63;12.85;-4.25;-63.05
3.38;-5.23;-9.37;11.33;5.44;-54.23
6.64;-4.36;-2.94;7.30;15.90;-9.91
-7.08;-1.20;1.85;-4.03;16.66;19.17
-1.42;4.46;4.25;-10.45;6.21;38.44
-22.32;2.07;25.26;-8.06;5.44;38.44
-4.68;6.10;8.28;-11.33;1.42;54.56
-27.22;5.23;10.78;-11.33;-17.97;65.01
-3.81;3.70;9.91;-8.06;-16.33;58.59
-2.29;5.23;12.31;-14.48;-9.04;59.46
-12.74;10.89;13.18;-14.48;-11.43;70.68
-4.68;5.23;13.94;-13.72;3.05;36.81
1.74;2.07;5.12;-2.40;5.44;3.05
2.61;6.10;1.85;23.30;5.44;-22.76
4.25;-1.96;-0.54;-18.51;1.42;-46.17
5.77;-2.83;-9.37;12.09;-3.48;-50.20
6.64;0.44;-11.00;17.75;-2.61;-43.67
26.79;-3.59;-10.24;13.72;5.44;-48.57
6.64;-6.86;-11.87;8.06;5.44;-46.17
-4.68;-7.62;-36.05;15.35;15.90;-54.23
-4.68;-6.86;-5.34;13.72;18.30;-68.72
3.38;-4.36;-8.60;12.09;22.32;-44.54
2.61;-1.20;-2.94;-2.40;20.69;-9.91
-7.84;2.07;-0.54;-8.82;16.66;19.17
1.74;-23.74;-16.66;-4.03;13.50;37.68
0.98;-1.20;11.54;-6.43;6.21;55.43
-3.05;6.10;12.31;-0.76;-12.31;56.95
-4.68;6.10;12.31;-11.33;-9.91;53.80
2.61;0.44;16.33;-12.85;-13.07;52.16
-0.65;6.10;12.31;-12.85;-23.52;61.86
-5.44;8.49;13.18;-15.35;-22.00;67.41
-5.44;-1.20;9.91;-9.69;-15.46;34.41
-3.81;6.10;3.48;-5.66;-12.31;3.05
21.13;2.07;-0.54;-1.63;-8.28;-43.67
3.38;-8.39;-1.31;9.69;1.42;-39.64
7.41;-1.96;-5.34;14.48;4.57;-42.91
2.61;-6.86;-12.63;25.81;10.24;-48.57
-36.05;-4.36;-11.87;20.91;20.69;-41.27
27.55;-7.62;-15.90;19.38;44.87;-62.29
3.38;-9.26;-22.32;14.48;38.44;-48.57
1.74;-4.36;-15.90;20.15;48.90;-61.42
3.38;1.20;-27.99;12.09;21.56;-40.51
3.38;-4.36;-2.94;6.43;5.44;-9.04
-1.42;1.20;-23.96;-2.40;-24.39;11.87
1.74;0.44;0.22;-39.53;-46.17;28.75
-5.44;2.07;5.12;-16.12;-54.99;47.37
2.61;5.23;22.87;-16.12;-62.29;46.50
-22.32;4.46;5.12;-17.75;-46.17;47.37
-6.32;2.07;9.91;-13.72;-20.36;55.43
-0.65;5.23;9.15;-23.41;-2.61;58.59
0.98;6.10;11.54;-18.51;10.24;68.28
-7.84;2.07;9.91;-8.06;23.96;37.68
-1.42;2.07;11.54;-1.63;11.11;5.44
-2.29;-0.33;3.48;8.82;12.63;-17.10
0.98;-10.89;0.22;14.48;19.93;-39.64
7.41;-6.86;-2.18;22.54;23.96;-48.57
4.25;-11.65;-10.24;11.33;23.96;-43.67
3.38;-5.99;-8.60;12.09;17.53;-42.91
5.77;-6.86;-15.03;13.72;7.84;-36.48
5.01;-4.36;-11.00;11.33;1.42;-57.39
4.25;-5.99;-13.39;9.69;-5.01;-70.35
-20.80;-6.86;0.22;4.79;5.44;-37.24
2.61;-1.96;-2.18;-0.76;7.08;-1.85
1.74;0.44;0.22;-4.03;6.21;16.66
-3.81;7.73;-0.54;-0.76;7.84;40.84
-3.81;7.73;9.91;10.45;3.81;50.53
-7.08;3.70;-11.00;-9.69;-21.13;53.80
-0.65;5.23;11.54;-13.72;-5.88;56.19
-5.44;6.10;9.91;-13.72;5.44;52.16
-40.95;3.70;5.88;-13.72;-3.48;56.19
-9.47;6.10;11.54;-13.72;-19.49;59.46
-5.44;6.10;12.31;-19.38;-27.55;28.75
-15.14;6.10;6.75;-3.27;-35.61;-23.52
-1.42;5.23;5.12;-5.66;-34.85;-30.06
4.25;0.44;-0.54;4.79;-6.64;-46.94
7.41;-5.99;-6.21;25.81;-14.70;-48.57
7.41;-2.83;-9.37;10.45;-5.88;-49.33
2.61;-6.86;-13.39;-13.72;5.44;-44.54
5.01;-8.39;-15.03;12.85;10.24;-45.30
3.38;-4.36;-11.87;12.85;11.11;-58.26
6.64;-5.99;-11.87;12.09;13.50;-68.72
2.61;-1.96;-8.60;12.09;7.08;-47.70
3.38;3.70;-1.31;0.76;6.21;-9.91
3.38;-3.59;-3.81;1.63;7.08;16.66
0.98;5.23;3.48;20.15;4.57;37.68
2.61;4.46;0.22;-5.66;3.05;56.95
2.61;6.86;5.12;-8.06;-5.01;61.86
-3.81;4.46;10.78;-8.06;-9.91;58.59
-3.81;4.46;0.22;-4.79;-12.31;57.83
-1.42;6.10;11.54;-8.06;-8.28;65.88
-4.68;13.29;20.36;-8.82;6.21;73.07
-3.81;3.70;13.18;-13.72;17.53;40.08
-2.29;4.46;10.78;-0.76;14.27;5.44
-3.81;-1.20;-9.37;4.79;15.90;-18.73
4.25;2.07;-0.54;-4.03;19.17;-38.11
7.41;-5.23;-8.60;9.69;27.22;-44.54
4.25;-3.59;-8.60;19.38;21.56;-36.48
9.80;-1.20;-17.42;21.78;43.34;-43.67
4.25;-4.36;-15.90;25.81;11.11;-41.27
4.25;-5.99;-13.39;39.42;-5.88;-59.79
2.61;-8.39;-11.87;22.54;-5.88;-74.38
3.38;-4.36;-11.00;12.85;-21.13;-48.57
-0.65;-4.36;-0.54;6.43;-32.45;-11.54
0.98;4.46;3.48;-0.76;-20.36;17.53
-4.68;1.20;13.94;-9.69;-20.36;34.41
-5.44;2.07;4.25;-16.12;-5.01;61.86
-5.44;-2.83;11.54;-16.12;7.84;19.93
-7.08;3.70;10.78;-10.45;19.17;55.43
-5.44;2.07;10.78;-13.72;23.96;53.80
-8.71;6.10;13.18;-9.69;16.66;65.01
-10.35;6.10;17.97;-11.33;5.44;69.04
-7.08;3.70;17.21;-12.85;-9.04;32.78
-0.65;6.10;8.28;-5.66;-22.76;1.42
1.74;2.83;22.87;-2.40;-29.19;-48.57
0.22;-2.83;-0.54;9.69;-33.21;-39.64
15.46;-1.20;-27.12;12.09;-32.45;-76.77
-17.53;-5.23;-11.87;11.33;-29.19;-48.57
9.04;-6.86;-11.00;17.75;1.42;-51.73
1.74;-6.86;-11.00;14.48;11.11;-48.57
5.77;-1.96;-4.57;12.85;27.99;-58.26
4.25;-6.86;-27.99;11.33;31.25;-74.38
2.61;31.91;-14.27;-0.00;44.87;-47.70
-1.42;6.10;-9.37;0.76;22.32;-9.04
0.98;4.46;-2.18;0.76;14.27;12.63
-7.08;-5.23;0.22;-13.72;0.54;40.84
-9.47;-4.36;1.85;-11.33;-5.88;48.90
-4.68;5.23;4.25;-6.43;-4.25;54.56
-6.32;6.10;6.75;-11.33;-1.85;63.49
-4.68;5.23;10.78;-4.79;-2.61;66.65
-2.29;-5.99;12.31;-8.06;-1.85;66.65
-7.84;10.13;13.18;-17.75;5.44;72.31
-1.42;6.86;13.18;-12.09;4.57;15.14
-0.65;2.07;4.25;-6.43;1.42;3.81
2.61;-1.20;3.48;-29.84;3.81;-13.94
2.61;-1.20;1.85;8.06;-5.01;-40.51
5.01;0.44;-1.31;15.35;-5.01;-52.60
10.67;-6.86;-4.57;19.38;-19.49;-40.51
3.38;-31.04;-13.39;7.30;-1.85;-48.57
3.38;-5.99;-15.03;12.09;3.05;-46.17
8.28;10.13;-13.39;4.79;-9.04;-50.97
4.25;-5.23;-9.37;10.45;4.57;-65.45
6.64;-8.39;-0.54;0.76;5.44;-61.42
-0.65;2.83;0.22;-5.66;11.11;-10.67
-3.81;-4.36;-2.18;-4.79;11.11;40.84
0.98;1.20;3.48;-2.40;12.63;40.84
-4.68;4.46;7.51;-8.82;1.42;46.50
-3.05;4.46;9.15;-4.79;-8.28;53.80
-1.42;6.10;9.91;-2.40;-6.64;55.43
2.61;-1.20;16.33;-4.79;-17.10;55.43
12.31;1.20;15.57;-4.79;-21.13;61.86
1.74;6.10;11.54;-10.45;-22.76;66.65
-16.77;3.70;14.81;-20.15;-20.36;44.10
3.38;-1.20;8.28;-13.72;-10.67;7.08
-1.42;-1.96;5.12;-14.48;11.11;-17.10
2.61;3.70;-6.21;4.03;31.25;-43.67
5.01;-4.36;-5.34;12.09;20.69;-50.97
4.25;-1.96;-11.00;16.12;14.27;-54.23
3.38;-2.83;-12.63;16.12;28.75;-50.97
9.04;-2.83;-12.63;13.72;12.63;-47.70
5.01;10.89;-11.00;16.88;-1.85;-57.39
10.67;-1.20;-13.39;17.75;-19.49;-73.51
-1.42;-10.89;-8.60;16.88;-20.36;-48.57
0.98;-1.20;13.94;6.43;-24.39;-7.51
-1.42;3.70;1.09;-0.76;-27.55;33.65
-2.29;0.44;1.85;-2.40;-12.31;36.05
3.38;6.10;4.25;-9.69;-8.28;43.34
-2.29;4.46;8.28;-6.43;-8.28;43.34
-4.68;8.49;12.31;-12.09;-18.73;55.43
-3.81;2.07;12.31;-12.09;-1.85;57.83
-9.47;6.86;12.31;-25.81;2.18;57.83
-8.71;1.20;13.94;-13.72;3.05;71.44
-7.84;-1.20;9.91;-13.72;5.44;40.84
-6.32;-1.96;5.88;-6.43;4.57;1.42
3.38;-2.83;1.85;-2.40;0.54;-17.97
23.52;-5.99;-3.81;8.82;5.44;-22.76
3.38;1.20;-6.21;12.09;7.08;-48.57
5.77;2.83;-9.37;12.09;9.47;-47.70
7.41;-9.26;-11.00;11.33;15.90;-45.30
4.25;-5.99;-15.90;12.09;15.90;-43.67
4.25;-3.59;-11.00;16.88;10.24;-48.57
7.41;-6.86;-12.63;14.48;25.59;-65.45
3.38;-6.86;-34.41;12.09;9.47;-37.24
3.38;-5.23;-1.31;-0.00;16.66;-4.25
1.74;-4.36;2.72;0.76;7.08;23.20
3.38;4.46;8.28;-11.33;25.59;44.87
-5.44;6.10;12.31;-1.63;19.17;65.88
-1.42;1.20;4.25;-1.63;6.21;53.80
-4.68;4.46;11.54;-32.23;-2.61;49.77
-7.08;2.07;16.33;-3.27;-15.46;43.34
-4.68;4.46;10.78;-12.85;-26.03;49.77
-7.84;6.10;13.18;-49.99;-41.27;62.62
-5.44;10.13;12.31;-13.72;-34.85;49.77
3.38;6.10;9.91;-4.79;-20.36;3.05
-31.25;4.46;1.09;-4.79;-2.61;-20.36
2.61;-1.96;-2.94;8.06;-14.70;-46.94
2.61;-1.20;-5.34;9.69;-4.25;-54.23
0.98;-4.36;-8.60;13.72;-0.22;-51.73
3.38;-31.80;1.09;15.35;3.05;-46.17
12.31;-2.83;-18.30;12.85;-0.22;-69.48
9.80;-10.02;-15.03;18.51;4.57;-57.39
7.41;-2.83;-11.87;-12.85;-1.85;-72.75
6.64;-9.26;-5.34;8.06;5.44;-45.30
1.74;-1.20;11.54;4.79;7.08;-9.91
-0.65;-1.96;-0.54;-0.76;14.27;24.72
-4.68;1.20;3.48;-2.40;19.17;56.19
-2.29;-1.96;5.12;-8.06;15.14;47.37
-14.27;4.46;3.48;-8.06;12.63;55.43
-2.29;4.46;12.31;-13.72;19.17;55.43
-5.44;6.10;12.31;-6.43;4.57;52.93
-3.81;6.10;13.18;-13.72;5.44;60.22
-3.81;6.10;13.18;-13.72;16.66;62.62
3.38;3.70;13.94;0.76;23.96;44.10
-3.81;-4.36;6.75;12.85;23.96;3.05
0.22;6.10;-0.54;-1.63;9.47;-24.39
2.61;0.44;-0.54;12.09;-18.73;-43.67
6.64;-5.99;-9.37;9.69;-37.24;-44.54
3.38;-6.86;-7.84;12.09;-35.61;-42.91
36.48;2.07;-15.90;11.33;-42.91;-46.17
5.77;-5.99;-18.30;14.48;-40.51;-32.45
4.25;-32.56;-10.24;24.18;-40.51;-61.42
2.61;-7.62;-14.27;16.88;-30.82;-75.90
-4.68;-5.23;-6.21;7.30;-11.43;-56.63
21.89;-5.23;-8.60;-5.66;-6.64;-17.10
2.61;2.07;-1.31;-12.85;-0.22;11.11
-26.35;3.70;0.22;-12.09;0.54;32.02
12.31;4.46;4.25;-0.00;3.05;45.74
-8.71;6.10;7.51;-12.09;6.21;51.40
-11.87;5.23;9.15;-14.48;4.57;56.95
-3.81;8.49;25.26;-13.72;5.44;40.84
-4.68;4.46;7.51;-13.72;17.53;58.59
-8.71;5.23;17.21;-12.09;31.25;77.97
-7.08;5.23;12.31;-4.79;51.40;41.71
25.92;2.07;4.25;-0.00;30.38;15.14
1.74;-1.20;1.85;6.43;22.32;-13.94
-12.74;-5.99;-0.54;12.85;18.30;-37.24
4.25;-14.05;-2.18;14.48;11.11;-38.88
9.04;-1.96;-8.60;25.81;4.57;-46.94
5.77;-3.59;-13.39;24.18;15.14;-42.91
3.38;-5.99;-20.69;20.91;8.60;-36.48
4.25;0.44;-12.63;43.45;10.24;-50.97
-7.84;-1.96;-15.90;16.88;-5.01;-69.48
3.38;-21.34;-11.87;4.79;-16.33;-52.60
2.61;-4.36;-7.84;2.40;-28.42;-31.58
-7.84;-23.74;-0.54;-3.27;-36.48;3.81
5.01;-3.59;8.28;-10.45;-35.61;33.65
1.74;-3.59;6.75;-17.75;-32.45;40.08
-4.68;2.07;5.12;-5.66;-21.13;40.84
-4.68;-17.32;-11.00;-13.72;-24.39;49.77
-15.90;3.70;13.94;-17.75;-22.76;43.34
-5.44;-14.92;11.54;-16.12;5.44;52.93
-37.68;2.83;13.18;-18.51;13.50;63.49
-7.08;6.10;24.39;-13.72;6.21;41.71
-3.81;0.44;9.15;-6.43;20.69;5.44
-1.42;6.10;5.12;-2.40;33.65;-9.04
3.38;0.44;12.31;12.09;43.34;-33.21
16.33;-2.83;-6.21;24.18;36.05;-41.27
7.41;-1.96;-4.57;20.91;29.62;-34.85
11.43;-1.20;-15.03;23.30;23.20;-36.48
5.77;-8.39;-15.90;12.09;-22.00;-37.24
5.01;8.49;-11.87;16.88;-30.82;-51.73
13.83;-5.99;-12.63;-18.51;-33.21;-74.38
-32.89;-5.23;0.22;8.06;-29.19;-42.91
3.38;10.13;-12.63;1.63;-17.97;-15.57
3.38;1.20;-0.54;-1.63;0.54;11.87
-1.42;-33.43;22.87;-2.40;5.44;40.84
-24.83;-2.83;3.48;3.27;14.27;42.47
-5.44;4.46;1.85;-0.00;15.90;50.53
-5.44;5.23;12.31;-3.27;9.47;60.22
-8.71;-10.89;5.12;-12.09;5.44;54.56
15.46;6.10;12.31;-13.72;4.57;66.65
-8.71;3.70;14.81;-15.35;5.44;74.71
-3.81;-1.96;16.33;-16.12;-5.01;44.10
-0.65;2.07;9.91;-10.45;-1.85;6.21
-4.68;3.70;2.72;-1.63;-8.28;-22.00
3.38;-3.59;3.48;4.03;-7.51;-26.79
2.61;-6.86;-2.94;11.33;3.05;-48.57
6.64;-6.86;-7.84;12.09;5.44;-48.57
7.41;4.46;-11.00;12.09;11.11;-47.70
8.28;-5.99;-21.45;14.48;9.47;-42.91
3.38;-5.23;-14.27;12.85;13.50;-49.33
5.01;-6.86;-11.87;7.30;5.44;-77.54
10.67;-1.96;-17.42;-0.00;1.42;-44.54
-5.44;-1.20;-4.57;4.79;-8.28;-17.97
-0.65;1.20;-16.66;1.63;-14.70;8.60
1.74;-5.99;3.48;-8.82;-9.91;34.41
-1.42;4.46;4.25;-9.69;4.57;52.93
-3.81;6.10;11.54;-11.33;7.08;54.56
-2.29;1.20;13.94;-8.06;10.24;63.49
-4.68;-2.83;13.18;-32.23;7.84;62.62
0.22;6.10;10.78;-9.69;5.44;68.28
-3.81;7.73;17.97;-20.91;11.11;73.07
0.98;5.23;37.35;-0.76;25.59;40.84
-19.93;-1.20;9.15;41.93;21.56;8.60
9.04;0.44;5.12;7.30;18.30;-31.58
3.38;-2.83;0.22;4.79;3.81;-70.35
-13.50;-4.36;-6.21;-16.12;-20.36;-48.57
-5.44;-12.41;-8.60;11.33;-26.03;-49.33
1.74;-5.99;-35.17;12.09;-41.27;-48.57
13.83;-7.62;-13.39;6.43;-67.84;-50.97
3.38;-5.23;-16.66;16.12;-64.69;-60.66
7.41;32.67;-17.42;12.85;-33.21;-85.60
24.39;-2.83;-12.63;9.69;-31.58;-55.76
1.74;-7.62;-5.34;4.79;-5.01;-14.70
-4.68;-1.20;-0.54;-4.79;5.44;10.24
-7.08;2.07;3.48;-9.69;15.14;31.25
-9.47;0.44;0.22;-16.12;15.90;53.80
-3.81;5.23;6.75;-13.72;13.50;56.95
2.61;4.46;13.94;-11.33;7.08;54.56
-2.29;4.46;10.78;-12.09;5.44;54.56
-6.32;6.10;12.31;-13.72;7.08;58.59
-7.08;6.10;13.18;-16.12;5.44;69.04
6.64;5.23;13.94;-9.69;17.53;25.59
2.61;-4.36;9.15;3.27;31.25;14.27
1.74;0.44;3.48;8.06;31.25;-9.91
2.61;6.86;-0.54;11.33;26.35;-31.58
2.61;-1.96;-7.84;22.54;7.08;-38.88
3.38;1.20;-33.54;12.09;5.44;-40.51
9.04;-4.36;-5.34;16.12;3.81;-46.17
9.04;-8.39;-14.27;20.15;0.54;-47.70
13.07;-3.59;-8.60;12.09;-8.28;-50.20
4.25;-5.23;-13.39;13.72;-19.49;-75.14
5.01;-5.23;-6.21;11.33;-32.45;-50.20
0.98;-32.56;-4.57;-1.63;-20.36;-19.60
7.41;-4.36;0.22;-5.66;-17.97;12.63
-16.77;0.44;1.09;-6.43;-17.97;15.90
-4.68;6.10;8.28;-6.43;-30.06;36.81
-8.71;6.10;8.28;-10.45;-36.48;41.71
-10.35;-12.41;12.31;-11.33;-20.36;56.19
-3.81;2.07;12.31;-9.69;-11.43;54.56
-5.44;-19.71;12.31;-12.09;16.66;54.56
-10.35;6.86;5.12;-13.72;25.59;60.98
-3.81;6.10;12.31;-13.72;23.96;43.34
-0.65;6.10;8.28;-9.69;19.93;8.60
3.38;3.70;4.25;-6.43;16.66;-10.67
-1.42;-1.96;-0.54;12.85;11.11;-36.48
2.61;-4.36;-4.57;16.88;7.84;-75.14
4.25;-9.26;-11.87;9.69;12.63;-44.54
4.25;-5.23;-12.63;12.09;7.08;-47.70
4.25;-10.02;-17.42;12.09;0.54;-13.94
3.38;-8.39;-12.63;12.09;-7.51;-53.36
3.38;-35.07;-9.37;19.38;-9.91;-65.45
3.38;-5.23;-10.24;12.09;-8.28;-46.17
5.77;7.73;-4.57;4.79;-2.61;-15.57
-1.42;2.07;-1.31;-1.63;18.30;11.11
1.74;11.76;5.12;-37.90;20.69;38.44
-3.81;6.10;8.28;-8.06;23.96;52.93
0.98;14.92;7.51;-0.00;6.21;60.22
-2.29;6.10;13.94;-14.48;-11.43;57.83
-4.68;8.49;4.25;-13.72;-20.36;59.46
-1.42;-1.96;22.87;-14.48;-19.49;54.56
-9.47;2.07;12.31;-17.75;-8.28;69.91
-3.81;6.10;14.81;-15.35;5.44;40.08
-3.05;6.10;11.54;2.40;3.05;0.54
3.38;1.20;0.22;2.40;2.18;-27.55
-7.08;-3.59;-14.27;8.82;-1.85;-59.02
0.98;-7.62;-5.34;12.85;17.53;-56.63
-0.65;-8.39;-7.84;12.85;-9.91;-39.64
29.19;-15.68;-11.87;27.33;-8.28;-46.17
21.89;14.92;-14.27;24.18;-12.31;-47.70
3.38;-6.86;-8.60;13.72;-7.51;-52.60
7.41;-1.96;-8.60;17.75;3.05;-74.38
3.38;-4.36;-7.84;-20.91;14.27;-42.91
2.61;-5.99;-1.31;3.27;19.17;-6.64
-4.68;-1.96;-0.54;23.30;29.62;21.56
2.61;4.46;1.09;-4.79;23.96;43.34
0.98;2.83;5.12;-11.33;21.56;51.40
-3.81;3.70;1.85;-9.69;20.69;52.93
-1.42;1.20;8.28;-1.63;11.11;53.80
-1.42;7.73;6.75;-8.82;-8.28;40.84
-3.81;7.73;14.81;-14.48;-17.10;48.90
-4.68;6.10;16.33;-12.85;-9.04;62.62
-1.42;4.46;13.94;-8.82;-29.19;33.65
-3.81;5.23;8.28;-0.00;-46.17;3.05
2.61;2.83;-1.31;-0.76;-30.82;-27.55
5.01;-2.83;-0.54;8.06;-16.33;-42.91
4.25;3.70;-7.84;12.09;-2.61;-30.06
4.25;1.20;-11.00;12.09;11.87;-50.20
3.38;-5.23;-9.37;33.87;32.02;-44.54
3.38;-1.96;-14.27;15.35;8.60;-35.61
6.64;-3.59;-14.27;13.72;6.21;-52.60
3.38;-3.59;-14.27;8.82;5.44;-70.35
3.38;-6.86;-11.87;6.43;10.24;-48.57
0.98;-1.20;-2.94;6.43;7.08;-18.73
0.98;-5.23;-0.54;12.09;21.56;11.87
0.98;-1.20;1.09;-12.85;4.57;37.68
-2.29;0.44;5.12;-8.82;9.47;53.80
-6.32;4.46;5.88;-12.85;5.44;54.56
-2.29;6.10;12.31;-12.85;5.44;62.62
-4.68;10.13;21.24;-9.69;6.21;87.56
-11.11;3.70;10.78;-10.45;28.75;61.86
-7.08;4.46;14.81;-8.82;11.11;46.50
-7.08;14.92;14.81;-0.76;8.60;40.84
17.10;4.46;8.28;4.03;5.44;3.05
0.98;-19.71;5.88;16.12;4.57;-20.36
3.38;0.44;1.85;9.69;5.44;-36.48
4.25;-2.83;-0.54;8.82;7.08;-37.24
11.43;-5.23;-8.60;12.09;8.60;-46.17
5.01;-24.50;-11.00;12.09;4.57;-48.57
4.25;-6.86;-12.63;12.09;-9.04;-40.51
0.98;-2.83;-10.24;12.09;-24.39;-53.36
0.22;-6.86;-12.63;11.33;-25.16;-74.38
3.38;10.89;-2.94;3.27;-21.13;-13.94
0.98;-6.86;-0.54;1.63;-20.36;-17.97
-0.65;-2.83;-0.54;27.33;-13.07;16.66
-3.81;5.23;-0.54;-6.43;-9.04;35.28
-27.22;3.70;3.48;-5.66;4.57;48.13
-1.42;6.10;-0.54;-11.33;10.24;46.50
-9.47;4.46;1.85;-5.66;21.56;69.91
-7.08;6.10;8.28;-10.45;18.30;49.77
-4.68;5.23;11.54;-13.72;3.05;60.22
-5.44;8.49;11.54;-13.72;-9.91;62.62
-5.44;6.10;26.90;-11.33;-16.33;8.60
-3.81;6.86;3.48;-8.06;-9.04;10.24
-2.29;6.10;5.12;3.27;6.21;-22.76
4.25;-1.96;-2.18;8.06;20.69;-47.70
7.41;8.49;-3.81;12.85;0.54;-50.97
3.38;-5.23;-6.21;24.18;19.17;-49.33
3.38;-1.96;-12.63;12.09;14.27;-48.57
4.25;-5.23;13.18;16.88;2.18;-42.91
1.74;0.44;-8.60;12.09;-12.31;-40.51
3.38;-6.86;-7.84;12.85;-19.49;-70.35
5.01;7.73;-2.94;1.63;-20.36;-48.57
1.74;1.20;-0.54;9.69;-22.76;-13.07
5.01;15.79;-0.54;-4.03;-22.00;17.53
-7.08;2.07;0.22;-0.76;-18.73;42.47
-4.68;-1.96;4.25;-1.63;-4.25;49.77
-3.81;-1.20;5.12;-9.69;5.44;58.59
-4.68;4.46;11.54;-13.72;22.32;79.50
-1.42;-1.20;10.78;-38.66;31.25;52.93
-3.81;4.46;13.18;13.72;1.42;54.56
-10.35;10.13;16.33;-15.35;20.69;69.04
-5.44;6.10;12.31;-14.48;13.50;30.38
1.74;2.83;11.54;-2.40;6.21;1.42
3.38;2.07;5.12;-1.63;1.42;-13.94
3.38;5.23;-7.84;8.06;-5.88;-43.67
8.28;1.20;-12.63;12.09;-8.28;-56.63
9.04;4.46;-35.17;20.15;-8.28;-48.57
9.04;-6.86;-14.27;12.85;-18.73;-48.57
-9.47;-9.26;-14.27;14.48;-22.00;-48.57
-1.42;2.07;-11.87;10.45;-20.36;-50.97
5.01;2.07;-15.03;12.09;-1.85;-77.54
0.22;-4.36;-4.57;8.06;14.27;-46.94
-0.65;0.44;-1.31;10.45;23.20;-13.94
0.98;0.44;3.48;3.27;16.66;15.14
1.74;2.07;1.85;-3.27;6.21;37.68
-3.81;6.10;5.12;-8.06;6.21;59.46
-3.81;6.10;1.09;-11.33;4.57;54.56
1.74;6.10;11.54;-26.57;-4.25;59.46
4.25;6.10;13.18;-6.43;-1.85;54.56
-3.81;2.07;13.18;-12.85;-11.43;61.86
-7.08;-5.99;16.33;-17.75;-1.85;71.44
-7.08;2.07;13.18;-4.79;-4.25;40.08
-2.29;2.07;11.54;-14.48;1.42;5.44
-3.81;-1.96;-15.90;1.63;3.05;-20.36
2.61;-28.53;-0.54;4.03;5.44;-42.91
3.38;-6.86;-5.34;8.06;0.54;-54.23
3.38;-21.34;-9.37;12.09;-3.48;-56.63
3.38;-2.83;-6.21;9.69;-8.28;-60.66
44.54;8.49;-12.63;11.33;-5.01;-49.33
3.38;-6.86;-12.63;6.43;-5.88;-48.57
3.38;4.46;-13.39;8.82;-9.04;-73.51
5.01;-4.36;-11.87;-1.63;0.54;-48.57
3.38;-5.99;-2.18;4.79;-7.51;-9.91
1.74;-5.23;-4.57;-1.63;-4.25;15.14
-7.08;-4.36;0.22;-6.43;3.81;52.93
-3.05;-1.20;-0.54;-13.72;5.44;54.56
-7.08;5.23;9.15;-13.72;9.47;56.19
-1.42;-7.62;25.26;-12.85;7.84;36.05
-4.68;3.70;8.28;-19.38;5.44;56.19
-8.71;6.10;12.31;8.06;5.44;65.88
-5.44;-5.99;17.21;-15.35;-2.61;69.91
-3.81;5.23;8.28;14.48;-14.70;36.05
-3.81;3.70;5.88;2.40;-20.36;-2.61
-0.65;4.46;10.78;3.27;-20.36;-17.10
4.25;2.83;1.85;12.09;-8.28;-40.51
7.41;0.44;-0.54;12.85;6.21;-48.57
8.28;-8.39;-8.60;10.45;10.24;-47.70
5.01;-9.26;-11.00;13.72;16.66;-46.17
7.41;-8.39;-15.03;17.75;11.11;-43.67
13.07;-1.96;-14.27;14.48;11.11;-49.33
5.77;-1.20;-12.63;12.85;15.14;-71.87
3.38;-2.83;-15.03;14.48;19.17;-48.57
-3.81;-18.08;-8.60;4.79;17.53;-18.73
1.74;1.20;9.15;0.76;17.53;8.60
3.38;32.67;-0.54;-4.03;5.44;29.62
-5.44;5.23;3.48;-15.35;-9.91;54.56
-3.81;6.10;12.31;-15.35;6.21;60.22
1.74;5.23;10.78;-23.41;-25.16;52.93
-8.71;29.40;10.78;-9.69;-27.55;36.05
-8.71;6.10;13.18;-12.85;-20.36;52.93
-7.08;3.70;22.87;-18.51;-19.49;50.53
-5.44;4.46;11.54;-13.72;-14.70;44.87
1.74;3.70;7.51;-38.66;-5.01;3.05
0.98;2.83;2.72;-3.27;1.42;-17.10
1.74;-1.96;-1.31;12.09;5.44;-39.64
3.38;-6.86;-10.24;11.33;9.47;-48.57
3.38;-1.20;-0.54;15.35;9.47;-57.39
3.38;-6.86;-12.63;20.15;13.50;-46.17
7.41;-3.59;-12.63;23.30;7.08;-57.39
4.25;0.44;-11.00;16.88;5.44;-53.36
5.77;-6.86;-3.81;12.09;10.24;-72.75
2.61;-5.99;-10.24;1.63;15.90;-37.24
5.01;22.22;-0.54;0.76;14.27;-10.67
3.38;-4.36;3.48;-4.03;14.27;16.66
-0.65;-1.96;1.85;-3.27;0.54;37.68
5.77;5.23;5.12;-1.63;17.53;50.53
-5.44;-1.96;5.12;-11.33;35.28;54.56
1.74;2.07;10.78;-9.69;32.02;26.35
-3.81;6.10;-17.42;-12.09;2.18;53.80
0.98;3.70;11.54;-7.30;-28.42;56.95
-9.47;3.70;11.54;-12.85;-56.63;66.65
9.04;1.20;13.94;-12.09;-72.75;41.71
21.13;1.20;6.75;-4.03;-71.87;0.54
-0.65;6.10;8.28;-0.00;-54.99;-22.76
3.38;3.70;0.22;-2.40;-27.55;-45.30
10.67;-1.20;-6.21;22.54;-5.88;-52.60
3.38;-5.23;-9.37;8.82;16.66;-48.57
4.25;-5.99;-8.60;12.09;36.81;-47.70
8.28;-6.86;-17.42;20.15;39.31;-42.14
7.41;-5.23;-19.06;15.35;36.05;-48.57
5.01;-4.36;-12.63;12.09;26.35;-72.75
2.61;-14.05;-13.39;12.09;21.56;-40.51
1.74;-2.83;-0.54;4.79;33.65;-10.67
1.74;3.70;-0.54;-22.54;43.34;16.66
-1.42;5.23;5.88;30.60;42.47;41.71
-2.29;-1.96;12.31;0.76;31.25;54.56
-3.81;5.23;9.91;-8.82;13.50;54.56
-14.27;4.46;12.31;-15.35;-9.04;54.56
-7.84;2.07;1.85;-10.45;-27.55;55.43
-7.08;16.55;12.31;-13.72;-46.17;53.80
-7.84;4.46;14.81;-19.38;-61.42;56.19
-4.68;6.86;10.78;-12.85;-63.82;36.05
-2.29;5.23;9.91;-4.03;-46.17;3.81
-0.65;-12.41;3.48;-2.40;-22.76;-21.13
-14.27;-2.83;-2.18;-4.79;3.81;-43.67
5.77;-1.20;-5.34;32.23;41.71;-48.57
6.64;-1.96;-5.34;12.85;17.53;-47.70
5.77;-6.86;-5.34;11.33;11.11;-48.57
29.19;-10.89;-11.87;12.09;3.81;-44.54
5.01;-4.36;-12.63;12.09;3.05;-49.33
4.25;-9.26;-13.39;12.09;-7.51;-75.14
-2.29;-1.96;-8.60;8.06;0.54;-44.54
5.77;-6.86;-6.21;4.03;5.44;-5.01
7.41;-3.59;-0.54;0.76;16.66;19.17
-1.42;-1.96;5.12;1.63;18.30;39.31
-3.81;2.07;6.75;-10.45;22.32;53.80
-3.81;2.07;7.51;-8.82;28.75;54.56
-10.35;1.20;8.28;-9.69;2.18;56.19
-0.65;6.86;12.31;-11.33;5.44;54.56
-8.71;-1.20;11.54;-6.43;2.18;84.40
-18.30;8.49;16.33;-12.09;-4.25;67.41
-18.30;6.10;14.81;37.90;-21.13;45.74
-5.44;2.07;9.15;32.23;-9.04;7.08
-4.68;-24.50;7.51;-4.03;0.54;-13.94
-7.08;6.10;-0.54;-2.40;4.57;-37.24
31.58;2.07;5.12;8.06;5.44;-43.67
3.38;-5.99;-9.37;8.82;7.84;-42.91
9.04;-1.20;-11.00;14.48;5.44;-50.20
3.38;6.10;-11.87;12.85;5.44;-63.05
8.28;-4.36;-13.39;19.38;3.81;-44.54
3.38;-4.36;-13.39;16.12;1.42;-71.87
5.01;-3.59;-15.03;27.33;4.57;-48.57
-6.32;2.07;-4.57;8.82;3.05;-9.04
1.74;16.55;-2.94;-12.85;4.57;12.63
-5.44;3.70;-0.54;-0.00;5.44;34.41
-2.29;-2.83;19.60;-12.09;-3.48;40.08
8.28;-19.71;8.28;-9.69;-20.36;55.43
-0.65;6.10;8.28;-12.09;-14.70;54.56
-5.44;3.70;15.57;-13.72;-22.00;56.19
-3.81;2.07;12.31;-6.43;-17.10;51.40
-6.32;3.70;26.03;-17.75;-9.04;86.03
-9.47;1.20;15.57;-5.66;-8.28;40.08
-6.32;5.23;10.78;16.12;-0.22;3.05
2.61;-0.33;11.54;0.76;5.44;11.11
2.61;0.44;5.12;7.30;1.42;-39.64
7.41;-4.36;1.09;16.88;10.24;-34.85
3.38;-5.23;-8.60;16.88;20.69;-46.94
5.77;19.82;-14.27;32.23;-12.31;-39.64
8.28;-7.62;-14.27;13.72;14.27;-59.79
3.38;-14.92;-27.12;12.09;14.27;-48.57
4.25;-7.62;-14.27;12.09;29.62;-74.38
0.98;27.88;-12.63;7.30;20.69;-22.76
25.16;1.20;0.22;8.06;5.44;-17.10
-1.42;6.86;-0.54;7.30;13.50;8.60
0.98;0.44;8.28;-0.00;-21.13;43.34
-3.81;6.10;10.78;-1.63;-27.55;48.90
-8.71;6.10;7.51;-10.45;-32.45;56.19
-10.35;6.10;10.78;-13.72;-26.03;59.46
-2.29;3.70;8.28;-22.54;-17.97;56.19
0.98;6.10;11.54;-12.85;-5.01;56.19
-4.68;6.10;15.57;-17.75;5.44;63.49
-5.44;9.26;9.91;-12.85;18.30;31.25
-2.29;2.07;1.09;5.66;19.17;3.05
-0.65;3.70;-2.18;-0.76;16.66;-24.39
1.74;0.44;-0.54;-23.41;1.42;-47.70
5.01;-8.39;-9.37;4.79;-14.70;-57.39
7.41;1.20;-11.00;13.72;-20.36;-54.23
21.89;3.70;-12.63;12.09;-37.24;-48.57
7.41;-6.86;-5.34;13.72;-37.24;-48.57
3.38;6.86;-4.57;8.06;-31.58;-39.64
2.61;-6.86;-14.27;12.09;-10.67;-74.38
0.98;-5.99;-8.60;9.69;12.63;-48.57
6.64;-1.20;-0.54;17.75;22.32;-10.67
-7.08;0.44;1.85;-0.00;44.10;21.56
3.38;-5.23;4.25;-1.63;40.84;40.08
3.38;-18.95;8.28;-5.66;31.25;54.56
-2.29;0.44;11.54;-5.66;21.56;60.22
1.74;14.16;1.85;-2.40;19.93;61.86
-5.44;6.86;7.51;-1.63;7.84;60.98
-8.71;-8.39;12.31;-4.79;12.63;56.95
-8.71;6.10;10.78;19.38;12.63;73.07
-5.44;0.44;10.78;-3.27;5.44;44.10
-3.81;3.70;12.31;-4.03;-2.61;8.60
0.98;-14.92;5.88;-5.66;-9.91;-17.10
5.01;1.20;-0.54;15.35;-13.07;-42.91
-13.50;-1.20;-12.63;15.35;-1.85;-50.97
6.64;-4.36;-7.84;15.35;18.30;-52.60
12.31;-9.26;-14.27;16.88;26.35;-48.57
6.64;-2.83;-24.72;15.35;11.87;-46.17
3.38;22.22;-11.87;-5.66;3.05;-46.17
6.64;-6.86;-12.63;12.09;-15.46;-69.48
3.38;-6.86;-4.57;7.30;-33.21;-48.57
0.98;-1.96;-2.94;3.27;-41.27;-11.54
-5.44;-4.36;21.24;-0.76;-46.17;28.75
-4.68;6.86;-4.57;-13.72;-36.48;28.75
0.22;6.10;-22.32;-13.72;-21.13;47.37
-4.68;21.34;1.85;-39.53;2.18;52.93
-5.44;4.46;10.78;-13.72;12.63;53.80
0.22;-1.20;8.28;-12.85;15.14;53.80
14.70;6.10;11.54;-14.48;11.11;53.80
-4.68;8.49;13.18;-14.48;5.44;59.46
-8.71;1.20;13.18;-13.72;7.84;36.05
-3.81;4.46;11.54;-3.27;5.44;3.05
-3.81;6.10;5.12;-4.03;7.08;-27.55
2.61;4.46;10.78;10.45;11.11;-30.82
3.38;-2.83;-4.57;12.85;13.50;-5.88
12.31;-1.20;-11.00;12.85;17.53;-36.48
8.28;3.70;-11.87;12.09;15.90;-45.30
11.43;-4.36;-15.90;33.87;18.30;-36.48
34.85;18.19;-14.27;14.48;11.11;-42.91
5.77;-6.86;-7.84;16.88;11.11;-62.29
-27.99;-2.83;-11.00;9.69;20.69;-41.27
3.38;-0.33;-0.54;12.09;2.18;-14.70
1.74;5.23;3.48;0.76;0.54;7.08
-7.84;28.64;-0.54;-4.03;3.81;34.41
-2.29;0.44;6.75;-9.69;1.42;45.74
-5.44;6.10;6.75;-6.43;-13.07;51.40
-0.65;6.10;7.51;-13.72;-24.39;54.56
-3.05;6.10;10.78;-39.53;-42.14;50.53
-5.44;2.83;7.51;-11.33;-47.70;47.37
-8.71;4.46;12.31;-27.44;-54.23;56.95
-27.99;4.46;13.94;0.76;-37.24;31.25
-2.29;6.10;6.75;-4.79;-28.42;0.54
-2.29;5.23;1.09;0.76;-9.04;5.44
-1.42;4.46;-0.54;4.79;7.08;-42.91
2.61;-1.20;-1.31;11.33;23.20;-50.20
5.01;-10.02;0.22;14.48;31.25;-48.57
1.74;-7.62;-13.39;17.75;65.88;-40.51
5.77;-14.05;-12.63;7.30;42.47;-38.11
5.01;-6.86;-11.00;9.69;29.62;-43.67
3.38;21.34;-14.27;12.09;23.96;-62.29
3.38;-7.62;-12.63;12.09;7.84;-40.51
5.01;8.49;-8.60;4.03;7.08;-8.28
1.74;-1.96;-0.54;-2.40;-1.85;10.24
-2.29;5.23;3.48;-5.66;-3.48;40.08
-0.65;6.10;5.12;-3.27;-3.48;47.37
-4.68;8.49;27.66;-12.09;-2.61;48.90
-0.65;5.23;12.31;-39.53;19.93;52.93
-4.68;2.07;11.54;-6.43;26.35;55.43
-3.81;3.70;13.94;-12.85;13.50;56.19
-4.68;32.67;14.81;-11.33;-18.73;65.88
-5.44;6.86;11.54;-8.06;-20.36;43.34
-2.29;2.07;10.78;-8.06;-34.09;10.24
0.98;2.07;0.22;0.76;-38.88;-12.31
4.25;-24.50;0.22;28.97;-40.51;-42.91
6.64;-5.23;-0.54;11.33;-31.58;-51.73
11.43;-1.20;-26.35;12.09;-18.73;-43.67
7.41;-5.23;-11.87;12.09;-3.48;-35.61
3.38;-9.26;-16.66;12.09;14.27;-48.57
5.77;-11.65;-11.87;23.30;23.20;-51.73
3.38;-5.99;-15.90;13.72;15.90;-100.08
1.74;-2.83;-9.37;12.09;17.53;-63.82
3.38;6.10;-0.54;-0.76;15.90;-16.33
-1.42;8.49;1.09;0.76;23.20;11.87
-8.71;1.20;1.85;-4.79;17.53;28.75
-7.08;2.07;1.85;-2.40;8.60;46.50
-11.87;5.23;5.12;-3.27;9.47;52.16
-11.11;2.07;9.15;8.06;0.54;56.19
-7.84;-1.20;9.91;-13.72;-9.04;54.56
-7.84;6.10;13.18;-8.82;-11.43;62.62
-4.68;16.55;17.21;-11.33;-21.13;73.07
-2.29;6.86;11.54;-2.40;-20.36;42.47
-7.84;4.46;8.28;-13.72;-15.46;5.44
-8.71;0.44;11.54;-0.00;-18.73;-17.97
2.61;-5.23;-0.54;-0.00;-17.10;-42.91
3.38;-5.99;-2.94;0.76;-5.88;-48.57
9.04;1.20;-15.03;-0.00;0.54;-65.45
3.38;-27.01;-12.63;4.79;7.84;-50.20
9.04;-8.39;-14.27;11.33;6.21;-38.11
5.77;6.86;-13.39;16.12;6.21;-44.54
3.38;-0.33;-12.63;11.33;3.81;-70.35
0.98;6.10;-20.69;7.30;10.24;-46.94
4.25;-2.83;-4.57;0.76;9.47;-9.91
-2.29;16.55;-5.34;11.33;11.11;14.27
3.38;-3.59;0.22;0.76;11.11;40.08
-1.42;2.07;5.12;-0.00;19.17;50.53
-4.68;0.44;11.54;-2.40;19.17;52.16
-2.29;3.70;11.54;-2.40;11.11;65.01
0.98;2.07;12.31;-3.27;6.21;55.43
-0.65;4.46;13.94;-3.27;-5.01;55.43
-5.44;3.70;16.33;-15.35;-5.88;71.44
-3.81;6.10;17.97;19.38;-15.46;40.84
3.38;8.49;6.75;-5.66;-25.16;3.05
0.22;-34.19;6.75;-4.79;-30.82;-17.97
5.01;1.20;-2.18;-0.76;-19.49;-42.14
6.64;2.07;-5.34;12.09;-6.64;-50.20
4.25;-1.96;-11.87;14.48;6.21;-46.17
4.25;-5.99;-13.39;16.12;23.20;-48.57
6.64;-7.62;-4.57;28.21;32.78;-24.39
5.77;11.76;-15.90;23.30;52.93;-38.88
5.01;-1.20;-11.87;20.15;52.16;-61.42
3.38;-43.02;-5.34;20.91;42.47;-48.57
0.98;5.23;-6.21;4.03;15.90;-21.13
-4.68;6.10;0.22;-3.27;-9.04;7.08
-2.29;-0.33;-2.18;-13.72;-32.45;31.25
-3.81;-32.56;2.72;24.18;-40.51;44.10
-11.11;-2.83;8.28;-11.33;-57.39;52.16
-5.44;6.10;11.54;-6.43;-66.32;52.16
-3.81;5.23;13.94;-18.51;-56.63;39.31
-0.65;6.10;9.91;-13.72;-46.17;45.74
-5.44;6.10;8.28;-20.91;-33.21;76.34
-1.42;6.10;17.97;-17.75;-11.43;32.78
-2.29;3.70;9.15;-5.66;7.84;3.05
0.22;-2.83;-1.31;-5.66;19.17;15.14
2.61;-8.39;1.09;-0.76;23.96;-47.70
3.38;-5.23;-5.34;4.03;22.32;-47.70
3.38;-1.96;5.12;9.69;23.96;-54.23
3.38;-5.99;-11.00;12.85;16.66;-30.82
1.74;18.19;-14.27;18.51;5.44;-38.11
3.38;-6.86;-14.27;14.48;-6.64;-48.57
3.38;-5.23;-15.03;12.85;-2.61;-72.75
3.38;22.22;-8.60;49.11;3.81;-48.57
3.38;2.07;-6.21;1.63;11.87;-13.94
-1.42;6.10;-15.03;3.27;11.11;4.57
7.41;5.23;4.25;4.79;14.27;40.84
-2.29;6.86;5.12;-0.76;5.44;52.93
2.61;3.70;10.78;-1.63;15.90;55.43
-1.42;1.20;13.18;-3.27;11.11;65.01
-5.44;6.10;11.54;-4.79;3.81;60.98
-1.42;3.70;10.78;-9.69;-5.88;60.22
-11.11;6.10;1.85;-16.12;-9.04;67.41
-0.65;2.07;8.28;-5.66;-14.70;40.84
0.22;2.83;10.78;-8.06;-17.97;7.08
1.74;1.20;7.51;-3.27;-12.31;-12.31
3.38;-1.20;2.72;8.06;-15.46;-43.67
2.61;-5.99;-7.84;12.09;-5.88;-50.20
4.25;14.92;-2.18;14.48;5.44;-47.70
9.04;-5.99;-8.60;12.85;5.44;-53.36
3.38;-31.80;-15.03;16.12;7.84;-46.17
3.38;-2.83;-13.39;13.72;9.47;-47.70
5.77;13.29;-8.60;12.09;10.24;-73.51
3.38;-5.99;-11.00;7.30;4.57;-59.79
-0.65;-22.98;-5.34;16.88;-0.22;-19.60
1.74;-6.86;-0.54;19.38;-1.85;11.11
-7.84;-34.19;0.22;-5.66;1.42;28.75
-10.35;4.46;4.25;-9.69;0.54;50.53
-14.27;4.46;9.15;-8.06;-19.49;59.46
-11.11;4.46;8.28;-6.43;5.44;62.62
-4.68;6.10;10.78;-11.33;7.08;60.22
-7.08;1.20;9.15;3.27;-5.01;60.22
-2.29;6.10;16.33;-16.12;4.57;71.44
-3.81;6.10;13.18;-21.78;1.42;45.74
-5.44;-1.20;7.51;-3.27;-5.88;8.60
-0.65;2.83;30.93;-0.76;5.44;-13.94
-11.87;6.10;1.85;17.75;-0.22;-37.24
5.77;-2.83;-8.60;14.48;-5.88;-50.97
0.98;-5.99;-14.27;10.45;-1.85;-48.57
12.31;-4.36;-15.90;12.09;3.05;-48.57
14.70;-18.08;-22.32;14.48;-5.01;-47.70
10.67;31.91;-14.27;10.45;-7.51;-48.57
3.38;-6.86;-18.30;14.48;-11.43;-73.51
4.25;-5.23;-15.03;10.45;-6.64;-33.21
14.70;-7.62;-7.84;-0.00;-10.67;-8.28
1.74;6.86;0.22;-0.76;-8.28;5.44
2.61;22.22;0.22;-6.43;-12.31;40.84
-4.68;26.24;6.75;-5.66;-1.85;44.87
-0.65;-2.83;10.78;-8.06;5.44;52.93
1.74;-2.83;9.91;-0.00;7.84;58.59
-3.81;6.10;11.54;-5.66;19.17;62.62
-3.81;5.23;11.54;4.79;17.53;58.59
1.74;5.23;25.26;-13.72;11.11;77.10
-1.42;-5.99;16.33;-14.48;5.44;46.50
0.98;-3.59;16.33;-9.69;1.42;9.47
3.38;5.23;3.48;12.09;-1.85;-9.04
-23.20;-6.86;7.51;9.69;-8.28;-60.66
3.38;1.20;-4.57;3.27;-2.61;-50.20
3.38;-5.99;-7.84;12.09;5.44;-48.57
9.04;-10.02;-9.37;16.12;9.47;-42.91
4.25;-7.62;-11.87;16.12;20.69;-39.64
4.25;-7.62;3.48;19.38;16.66;-50.20
4.25;-5.23;-12.63;16.12;29.62;-74.38
3.38;-5.99;-7.84;1.63;28.75;-50.20
2.61;-1.20;-2.94;1.63;19.93;-13.94
-0.65;1.20;-2.94;-3.27;-6.64;11.87
2.61;37.46;2.72;-0.76;-11.43;32.78
-5.44;4.46;4.25;-14.48;-24.39;46.50
14.70;18.19;7.51;-12.85;-41.27;69.91
-9.47;4.46;5.88;-14.48;-47.70;56.95
-3.81;7.73;9.91;-5.66;-48.57;52.16
2.61;8.49;15.57;-13.72;-35.61;53.80
-7.84;6.10;13.94;-14.48;-14.70;63.49
-3.81;2.07;18.84;-14.48;5.44;36.81
-4.68;2.07;8.28;-1.63;23.20;3.81
-4.68;1.20;0.22;8.06;30.38;-21.13
-11.11;-1.20;0.22;6.43;31.25;-40.51
3.38;-7.62;-11.00;13.72;32.78;-49.33
3.38;-6.86;-12.63;28.97;20.69;-46.17
3.38;-17.32;-11.87;16.88;7.08;-44.54
9.04;-2.83;-15.90;16.12;-9.04;-44.54
4.25;-2.83;-15.90;9.69;-16.33;-49.33
4.25;-5.99;-14.27;3.27;-26.03;-73.51
3.38;6.86;-7.84;0.76;-26.03;-50.20
-16.77;-1.96;-2.94;-1.63;-12.31;-14.70
-1.42;0.44;-1.31;-4.03;-1.85;-9.04
7.41;-17.32;1.85;-5.66;4.57;29.62
-6.32;2.83;4.25;-11.33;8.60;42.47
-7.08;6.10;6.75;-12.09;19.17;53.80
-0.65;1.20;12.31;-13.72;14.27;54.56
-7.08;1.20;8.28;-24.94;6.21;56.95
-0.65;1.20;8.28;-13.72;-34.09;54.56
-5.44;-23.74;13.18;-12.85;-28.42;72.31
-8.71;2.83;12.31;-35.50;-26.03;42.47
-1.42;2.07;8.28;-0.76;-12.31;8.60
-1.42;-2.83;1.85;-0.00;16.66;-10.67
14.70;-7.62;-0.54;13.72;31.25;-34.85
3.38;-4.36;-6.21;16.88;27.22;-45.30
7.41;-12.41;-11.00;17.75;11.11;-40.51
9.04;-6.86;-12.63;12.85;-1.85;-34.09
7.41;-9.26;-10.24;14.48;-15.46;-38.11
9.04;-5.23;-14.27;12.09;-7.51;-44.54
4.25;-30.17;-11.00;12.09;-9.04;-82.44
5.77;-6.86;-11.00;-0.76;-1.85;-50.97
16.33;-19.71;-7.84;-1.63;5.44;-13.94
3.38;2.83;-0.54;-0.76;5.44;6.21
-0.65;-3.59;4.25;-6.43;7.84;34.41
-2.29;6.10;8.28;-11.33;6.21;48.90
2.61;5.23;5.88;-10.45;1.42;79.50
-7.08;6.10;10.78;-11.33;7.84;60.22
-0.65;6.86;12.31;-13.72;0.54;56.95
-10.35;26.24;13.18;-4.03;17.53;48.90
13.83;9.26;12.31;-13.72;27.22;68.28
-13.50;8.49;3.48;-3.27;19.17;54.56
2.61;2.07;8.28;-0.00;14.27;14.27
0.98;1.20;2.72;3.27;9.47;-10.67
0.98;5.23;-0.54;6.43;-5.88;-41.27
5.01;-5.99;-2.94;12.09;-20.36;-44.54
4.25;-1.20;25.26;12.09;-30.82;-46.17
7.41;-2.83;6.75;14.48;-33.21;-52.60
7.41;31.04;-14.27;12.09;-32.45;-63.05
3.38;-31.04;-8.60;11.33;-20.36;-44.54
4.25;-5.99;-14.27;12.09;1.42;-71.87
3.38;27.01;-11.87;7.30;10.24;-48.57
-25.59;-2.83;-1.31;-0.00;17.53;-17.10
-5.44;3.70;-0.54;-0.76;19.17;5.44
-0.65;-0.33;1.09;-13.72;11.11;34.41
-7.84;-20.47;2.72;-13.72;15.90;45.74
-5.44;5.23;4.25;-6.43;6.21;52.16
-3.81;5.23;14.81;-9.69;1.42;58.59
-4.68;2.07;12.31;-8.06;-14.70;54.56
-2.29;5.23;17.21;-4.79;-2.61;55.43
-8.71;-18.08;17.97;-17.75;-5.01;80.37
-7.84;2.07;13.18;-8.06;12.63;44.10
-1.42;-16.44;11.54;-4.79;-1.85;7.08
-0.65;2.07;3.48;1.63;-5.88;-43.67
2.61;-18.95;-0.54;-4.79;-5.88;-34.85
4.25;13.29;-8.60;8.82;-12.31;-42.91
4.25;-6.86;-13.39;8.82;-19.49;-46.94
7.41;-6.86;-11.87;12.09;-19.49;-46.17
4.25;-2.83;-16.66;12.09;7.84;-48.57
4.25;-9.26;-7.84;15.35;7.84;-48.57
-26.35;-14.92;-5.34;12.09;11.11;-74.38
3.38;-2.83;-12.63;6.43;15.90;-53.36
1.74;-1.20;-5.34;7.30;7.08;-21.13
3.38;-10.02;-1.31;8.06;14.27;3.81
-5.44;4.46;4.25;8.06;9.47;56.95
-3.81;-22.11;4.25;-4.79;-10.67;54.56
-5.44;-1.20;5.12;-39.53;-16.33;53.80
-4.68;2.83;8.28;-23.41;-13.07;37.68
-7.84;-5.99;9.15;-16.12;-6.64;54.56
-7.84;5.23;8.28;-35.50;-1.85;52.93
-6.32;5.23;13.18;-24.18;3.81;72.31
-10.35;6.10;11.54;-16.12;6.21;36.81
-1.42;7.73;11.54;-5.66;6.21;3.05
3.38;6.10;4.25;1.63;5.44;-19.60
3.38;18.95;30.06;12.09;5.44;-39.64
3.38;-2.83;-4.57;20.91;3.05;-46.94
-0.65;-14.05;-11.00;26.57;5.44;-48.57
8.28;-4.36;-33.54;14.48;13.50;-53.36
5.01;-6.86;-15.03;16.12;16.66;-46.17
9.04;-5.23;-11.00;42.69;5.44;-52.60
3.38;-5.99;-15.90;13.72;6.21;-74.38
3.38;-1.20;-11.00;11.33;5.44;-74.38
2.61;-24.50;-2.18;3.27;-8.28;-9.04
3.38;-5.23;-0.54;-0.00;-9.91;11.87
-1.42;5.23;4.25;-21.78;-15.46;28.75
-0.65;44.00;20.36;-11.33;-17.97;44.87
0.22;-11.65;4.25;-11.33;-12.31;48.90
-4.68;4.46;12.31;-8.82;-13.07;41.71
-7.08;6.10;8.28;-5.66;-16.33;53.80
-1.42;10.13;25.26;-5.66;-6.64;54.56
-5.44;-19.71;12.31;-13.72;5.44;75.47
-4.68;4.46;11.54;-5.66;6.21;50.53
-5.44;6.10;9.91;-7.30;68.28;16.66
-2.29;2.07;0.22;-0.76;31.25;-5.01
3.38;-1.96;-1.31;-0.76;19.17;-28.42
3.38;-3.59;-1.31;4.03;6.21;-48.57
7.41;-3.59;-7.84;-2.40;-12.31;-48.57
5.01;-5.99;-11.00;12.09;-46.17;-50.97
7.41;-5.23;-16.66;19.38;-56.63;-46.17
8.28;-5.23;-15.03;12.09;-63.05;-50.20
5.77;-3.59;-14.27;12.09;-43.67;-75.90
3.38;-17.32;-8.60;8.82;-9.04;-59.02
-3.81;-4.36;-2.94;2.40;17.53;-17.97
0.22;8.49;-0.54;-1.63;30.38;11.87
-0.65;2.07;-2.94;-1.63;38.44;41.71
-5.44;-1.96;-19.06;-9.69;32.78;48.13
-5.44;6.86;1.85;-4.79;27.22;52.93
-7.08;6.10;8.28;-13.72;18.30;52.93
-5.44;1.20;8.28;-5.66;12.63;54.56
-7.84;11.76;12.31;4.79;16.66;55.43
-1.42;6.10;4.25;-13.72;6.21;87.56
-1.42;7.73;12.31;-10.45;-5.01;31.25
0.98;5.23;10.78;-0.00;-15.46;20.69
-3.81;2.07;6.75;14.48;0.54;-16.33
-0.65;2.07;0.22;4.03;-30.06;-34.85
3.38;-1.20;-9.37;37.90;-4.25;-48.57
4.25;-6.86;-15.90;12.09;10.24;-46.17
8.28;-5.99;-11.00;13.72;22.32;-49.33
7.41;-21.34;-14.27;19.38;22.32;-70.35
2.61;-7.62;-18.30;11.33;7.84;-34.09
3.38;-15.68;-11.87;12.85;5.44;-70.35
3.38;-1.20;-6.21;8.06;-9.04;-50.20
0.22;-28.53;-5.34;6.43;-17.97;-14.70
1.74;-2.83;-0.54;-11.33;-22.76;4.57
-5.44;2.83;14.81;-0.76;-18.73;30.38
-3.81;4.46;7.51;-6.43;-11.43;45.74
0.22;34.30;4.25;-9.69;-3.48;54.56
-3.81;-20.47;9.91;-8.06;14.27;60.22
2.61;5.23;-4.57;-9.69;10.24;36.81
-4.68;-9.26;8.28;-17.75;13.50;58.59
-5.44;6.10;14.81;-16.12;8.60;72.31
-1.42;2.07;13.94;-12.09;-1.85;43.34
-3.81;17.32;10.78;-5.66;-5.01;11.87
-3.05;-1.20;6.75;3.27;-6.64;-12.31
-0.65;-5.23;-6.21;4.79;-11.43;-36.48
3.38;-5.99;-11.00;-8.06;-20.36;-53.36
3.38;6.10;-11.00;12.09;-18.73;-49.33
4.25;-5.99;-12.63;16.12;-9.04;-48.57
10.67;-5.23;-6.97;17.75;1.42;-48.57
3.38;-8.39;-15.03;16.88;4.57;-48.57
10.67;34.30;-12.63;16.88;5.44;-71.11
5.77;-17.32;-13.39;9.69;5.44;-61.42
0.98;-7.62;-2.94;11.33;-6.64;-9.91
-4.68;-3.59;-0.54;1.63;14.27;18.30
-4.68;5.23;2.72;-8.82;11.11;30.38
-4.68;6.10;7.51;-3.27;7.84;54.56
1.74;4.46;-0.54;-9.69;3.81;53.80
2.61;6.10;11.54;-11.33;-3.48;60.22
-8.71;6.10;9.91;-1.63;-3.48;56.95
-7.08;2.07;11.54;-9.69;0.54;56.19
-7.84;6.10;12.31;0.76;0.54;70.68
-5.44;2.07;13.18;-5.66;-2.61;39.31
-0.65;6.10;9.91;-8.82;-5.88;27.22
-0.65;1.20;-18.30;-8.06;-5.01;-12.31
1.74;2.07;-1.31;1.63;-20.36;-42.91
3.38;-2.83;-12.63;-12.09;4.57;-40.51
4.25;0.44;-13.39;12.09;1.42;-46.17
3.38;-1.20;-13.39;12.85;-20.36;-48.57
5.77;-6.86;-14.27;12.85;-2.61;-46.17
3.38;-7.62;-15.03;58.81;7.84;-41.27
3.38;-6.86;-13.39;30.60;9.47;-65.45
0.98;-5.99;-9.37;33.00;22.32;-50.97
3.38;6.86;-2.94;12.85;36.05;3.05
1.74;-30.17;0.22;7.30;31.25;11.11
0.22;-19.71;9.91;-1.63;18.30;32.78
2.61;2.07;12.31;-8.06;1.42;47.37
-2.29;37.46;8.28;-13.72;-32.45;53.80
1.74;6.10;14.81;-16.88;-31.58;48.13
-3.81;6.10;10.78;-13.72;-54.23;50.53
-8.71;1.20;11.54;-14.48;-45.30;51.40
-5.44;6.86;15.57;-20.91;-42.14;69.91
-8.71;6.86;16.33;-8.06;-20.36;45.74
-3.81;0.44;11.54;-12.85;-5.88;8.60
0.22;2.07;1.85;-0.76;3.81;-27.55
-0.65;-4.36;5.12;10.45;5.44;-40.51
3.38;-2.83;-5.34;13.72;7.84;-55.76
2.61;-15.68;-11.00;14.48;5.44;-48.57
3.38;-6.86;-10.24;46.72;6.21;-47.70
2.61;-32.56;-17.42;48.35;8.60;-41.27
4.25;-7.62;-31.15;12.09;16.66;-23.52
3.38;-1.96;-16.66;13.72;11.11;-74.38
4.25;-6.86;-11.87;10.45;7.08;-50.20
4.25;-5.23;-9.37;-24.94;10.24;-18.73
1.74;26.24;-2.94;-0.00;6.21;11.11
3.38;-5.99;-1.31;1.63;0.54;36.81
-1.42;6.10;5.12;-4.79;22.32;47.37
-0.65;6.10;16.33;-8.06;4.57;53.80
-2.29;6.86;11.54;-8.06;5.44;56.19
-1.42;6.10;12.31;-1.63;5.44;61.86
-3.81;6.10;16.33;-4.03;5.44;56.95
-5.44;-27.01;17.21;12.09;-16.33;80.37
-6.32;3.70;13.18;-4.79;16.66;45.74
1.74;43.12;-17.42;-1.63;5.44;8.60
1.74;-1.20;4.25;1.63;3.05;-13.94
1.74;10.89;3.48;2.40;1.42;-44.54
1.74;3.70;-6.97;7.30;-14.70;-46.17
8.28;2.07;-5.34;4.79;-18.73;-49.33
8.28;-1.20;-7.84;12.09;-9.04;-48.57
5.77;-9.26;-17.42;13.72;-3.48;-49.33
7.41;-5.99;-8.60;7.30;-10.67;-44.54
2.61;-8.39;-13.39;16.12;-14.70;-73.51
1.74;2.07;-15.90;-10.45;-24.39;-59.02
-4.68;-5.23;-8.60;-0.76;-32.45;-22.76
-4.68;5.23;-0.54;-0.76;-33.21;18.30
-0.65;-17.32;-7.84;-5.66;-25.16;15.90
-1.42;6.10;8.28;-6.43;-37.24;42.47
-0.65;-6.86;-9.37;-6.43;3.05;49.77
-4.68;5.23;11.54;-8.82;10.24;48.90
-7.08;2.07;12.31;-11.33;11.11;44.10
-5.44;6.10;10.78;-16.12;13.50;44.10
-10.35;-5.99;11.54;-14.48;7.84;55.43
-7.84;3.70;13.94;-8.06;14.27;40.84
-0.65;32.67;5.12;-1.63;9.47;4.57
-3.81;1.20;-0.54;1.63;5.44;-22.76
3.38;-1.96;-2.18;10.45;-1.85;-36.48
2.61;-2.83;-2.18;11.33;4.57;-47.70
4.25;-1.96;-11.00;8.06;-1.85;-43.67
6.64;-5.99;-13.39;12.09;5.44;-44.54
7.41;16.55;-14.27;12.09;5.44;-38.11
5.77;-8.39;-28.75;11.33;5.44;-30.82
5.77;-2.83;-14.27;1.63;3.81;-74.38
2.61;1.20;-14.27;4.79;-2.61;-49.33
5.77;-0.33;-2.94;-0.00;3.05;-10.67
4.25;4.46;0.22;-9.69;-0.22;7.08
3.38;-1.96;1.85;-9.69;1.42;32.78
-3.81;5.23;7.51;-1.63;5.44;44.10
-3.81;3.70;-2.18;-8.82;7.08;50.53
-7.08;1.20;5.12;-3.27;7.84;60.22
-0.65;8.49;10.78;-4.79;4.57;65.88
-3.05;5.23;1.85;-8.06;5.44;49.77
-5.44;6.86;13.18;0.76;7.84;73.07
-1.42;2.83;12.31;-12.85;9.47;33.65
-3.81;-10.89;8.28;3.27;13.50;15.90
-0.65;6.86;1.85;-0.76;5.44;-18.73
3.38;-10.89;-0.54;8.82;-14.70;-31.58
3.38;-7.62;-6.21;8.06;-8.28;-48.57
3.38;-2.83;-5.34;13.72;-2.61;-50.20
3.38;31.91;-9.37;-8.82;-3.48;-48.57
4.25;-8.39;-13.39;-6.43;-15.46;-46.17
3.38;-5.23;-15.90;23.30;-18.73;-25.16
5.77;-5.99;-11.87;9.69;-12.31;-74.38
3.38;-6.86;-7.84;2.40;-16.33;-54.23
0.22;-5.23;-15.03;-0.76;-2.61;-22.76
2.61;1.20;-7.84;-6.43;6.21;5.44
-1.42;2.07;11.54;-6.43;3.05;21.56
-5.44;8.49;3.48;-4.79;-1.85;52.93
-3.81;-1.20;7.51;-5.66;3.81;61.86
0.98;6.10;10.78;-11.33;5.44;60.22
-7.84;4.46;7.51;24.94;7.84;56.19
-6.32;5.23;12.31;-12.09;5.44;53.80
-7.08;-1.20;10.78;-14.48;14.27;74.71
-7.08;4.46;13.94;-14.48;23.96;59.46
2.61;6.10;13.18;-12.09;15.90;14.27
-0.65;0.44;8.28;3.27;5.44;-12.31
-3.81;3.70;-0.54;12.09;-7.51;-35.61
5.01;0.44;-4.57;11.33;-20.36;-46.17
4.25;-2.83;-4.57;12.09;-21.13;-49.33
7.41;-15.68;-14.27;6.43;-30.82;-40.51
5.77;2.83;-16.66;13.72;-20.36;-46.17
4.25;-22.11;-14.27;22.54;-21.13;-47.70
3.38;-1.20;-15.03;36.26;-3.48;-74.38
-0.65;-10.02;-11.00;8.06;0.54;-52.60
1.74;-1.96;7.51;8.06;4.57;-31.58
2.61;-1.96;-0.54;-1.63;5.44;0.54
-4.68;0.44;-0.54;-8.06;14.27;27.99
-7.08;-1.20;5.12;-18.51;19.17;50.53
-3.05;7.73;8.28;-15.35;32.02;56.19
-5.44;6.10;8.28;-14.48;33.65;54.56
-7.84;-19.71;12.31;-8.82;11.11;45.74
-8.71;23.85;10.78;-14.48;-11.43;41.71
-10.35;8.49;25.26;-11.33;-27.55;65.01
-7.08;6.86;13.18;-8.06;-46.17;41.71
1.74;10.89;7.51;-8.06;-53.36;11.87
3.38;6.10;2.72;-0.76;-32.45;-15.57
7.41;2.07;0.22;1.63;-7.51;-35.61
5.77;-22.11;-4.57;11.33;14.27;-35.61
3.38;-30.17;-26.35;17.75;19.93;-39.64
3.38;-4.36;-17.42;13.72;18.30;-38.88
8.28;-20.47;-14.27;12.09;17.53;-38.11
4.25;0.44;-9.37;16.88;26.35;-42.91
3.38;-5.23;-13.39;12.09;31.25;-71.11
5.77;-1.96;-11.00;12.85;14.27;-53.36
1.74;-4.36;-5.34;-12.85;7.08;-17.10
-0.65;1.20;-5.34;17.75;-12.31;4.57
0.22;0.44;0.22;-0.00;3.05;29.62
-5.44;-4.36;7.51;-6.43;-7.51;41.71
-4.68;-2.83;8.28;-4.03;-13.07;44.10
-0.65;3.70;10.78;-8.82;-20.36;54.56
-0.65;31.91;11.54;-10.45;-38.11;55.43
-2.29;-1.96;11.54;-13.72;-9.91;53.80
-5.44;-22.98;13.18;-13.72;-1.85;74.71
-4.68;6.10;11.54;-14.48;5.44;48.90
-7.84;6.10;10.78;-4.79;1.42;16.66
0.98;3.70;24.39;-4.79;-8.28;-15.57
2.61;-5.23;-0.54;0.76;-11.43;-31.58
2.61;23.85;-11.00;9.69;-3.48;-41.27
4.25;2.07;-11.00;14.48;3.05;-48.57
3.38;-7.62;-11.87;16.88;7.84;-38.88
5.77;-10.89;-15.03;20.15;6.21;-24.39
5.77;5.23;-15.90;12.09;1.42;-46.17
5.77;-33.43;-11.00;12.09;5.44;-74.38
4.25;-3.59;17.21;9.69;-0.98;-50.20
2.61;-9.26;-6.21;4.03;5.44;-22.76
2.61;-4.36;-2.94;-5.66;3.05;3.81
-5.44;23.85;-0.54;-4.03;11.11;33.65
-3.81;-5.23;0.22;-6.43;16.66;53.80
-1.42;4.46;8.28;-6.43;31.25;54.56
-2.29;4.46;7.51;-4.79;40.84;60.22
-1.42;2.07;12.31;-12.09;20.69;61.86
-5.44;6.10;9.91;-11.33;5.44;56.19
-7.84;5.23;42.14;-12.85;-18.73;73.07
-3.81;6.86;16.33;-8.06;-31.58;41.71
-1.42;3.70;9.91;-3.27;-39.64;3.81
-7.08;0.44;9.91;-1.63;-43.67;-13.94
3.38;35.94;-0.54;4.79;-51.73;-35.61
3.38;-5.23;-1.31;25.81;-38.11;-48.57
3.38;-8.39;-6.21;37.90;-3.48;-52.60
8.28;-6.86;-11.87;20.91;14.27;-47.70
5.01;6.10;-13.39;17.75;31.25;-44.54
4.25;-6.86;-0.54;10.45;32.78;-42.14
4.25;19.82;-12.63;12.09;19.93;-73.51
-0.65;-15.68;-2.94;8.06;17.53;-49.33
-0.65;-36.59;-6.21;10.45;15.90;-27.55
2.61;14.16;-0.54;6.43;13.50;3.05
-1.42;7.73;-26.35;-0.00;18.30;30.38
3.38;-9.26;13.18;-5.66;19.17;47.37
-0.65;4.46;26.03;-10.45;1.42;45.74
-7.08;6.10;8.28;-13.72;-36.48;56.19
-7.08;3.70;11.54;-13.72;-27.55;54.56
-4.68;6.10;14.81;-14.48;-33.21;56.95
-7.08;27.88;16.33;-16.12;-26.03;40.84
-6.32;5.23;13.94;-17.75;-22.76;41.71
-9.47;7.73;3.48;-12.85;-17.97;2.18
0.98;-1.96;7.51;-2.40;-8.28;-22.76
4.25;2.07;-0.54;3.27;3.05;-36.48
3.38;-5.23;-3.81;12.09;7.08;-48.57
6.64;-6.86;-9.37;15.35;13.50;-43.67
8.28;-25.37;-11.87;49.11;33.65;-46.17
4.25;-5.23;-14.27;24.18;17.53;-48.57
11.43;-6.86;-15.03;20.91;13.50;-40.51
3.38;6.10;-26.35;15.35;16.66;-65.45
5.77;-5.23;-11.87;15.35;19.17;-38.88
1.74;3.70;-2.94;27.33;56.19;-13.94
-0.65;-25.37;-0.54;4.79;27.22;16.66
-0.65;-0.33;1.85;-0.76;23.96;33.65
-3.81;-1.20;7.51;-0.76;13.50;53.80
-7.08;-1.20;12.31;-14.48;5.44;55.43
-4.68;14.16;8.28;-12.09;-8.28;56.95
-0.65;33.43;13.94;-12.85;-20.36;67.41
-9.47;6.10;7.51;-12.85;-35.61;40.08
-6.32;7.73;14.81;-13.72;-37.24;63.49
-7.08;-6.86;6.75;-14.48;-32.45;36.81
-7.08;-1.96;10.78;-13.72;-22.00;2.18
0.98;42.36;8.28;-4.03;-19.49;-18.73
0.22;-1.20;-13.39;0.76;-14.70;-38.11
3.38;-2.83;-2.18;16.12;-14.70;-49.33
2.61;-23.74;-22.32;12.09;-12.31;-50.20
3.38;-6.86;-13.39;18.51;-14.70;-61.42
6.64;-11.65;-11.00;23.30;5.44;-50.20
3.38;-4.36;-11.00;7.30;5.44;-45.30
4.25;-7.62;-16.66;-9.69;19.93;-73.51
4.25;-8.39;-7.84;1.63;32.02;-48.57
3.38;-4.36;-8.60;0.76;18.30;-26.03
1.74;32.67;-2.18;-0.76;21.56;-2.61
-0.65;4.46;1.09;-8.82;23.20;32.78
1.74;0.44;6.75;-1.63;23.96;52.16
-1.42;4.46;5.12;-1.63;11.11;56.95
-7.08;3.70;10.78;-0.00;17.53;67.41
-3.81;2.07;25.26;-5.66;-9.91;60.22
-1.42;6.10;9.15;-5.66;-12.31;52.93
-7.08;-11.65;12.31;-12.09;-9.04;77.97
1.74;6.10;13.94;-8.06;2.18;53.80
0.22;3.70;12.31;-6.43;5.44;5.44
-0.65;26.24;9.91;-9.69;3.05;-9.91
0.98;1.20;3.48;-0.76;4.57;-42.91
4.25;-17.32;-2.94;3.27;-3.48;-52.60
3.38;3.70;-7.84;7.30;-3.48;-38.11
5.01;-1.96;-9.37;10.45;1.42;-54.99
3.38;1.20;-14.27;35.39;5.44;-50.20
3.38;-27.01;-10.24;9.69;-4.25;-45.30
3.38;-5.23;-15.03;8.06;-6.64;-73.51
7.41;-5.23;-13.39;9.69;-12.31;-56.63
0.98;1.20;-7.84;-4.79;-19.49;-26.03
-0.65;-6.86;-1.31;-5.66;-22.76;4.57
3.38;0.44;3.48;-12.85;-30.82;24.72
-4.68;6.10;11.54;-13.72;-27.55;42.47
-4.68;27.01;8.28;-12.85;-10.67;54.56
0.22;-27.77;5.12;-15.35;11.11;57.83
-2.29;2.07;13.18;-34.63;17.53;52.93
-1.42;6.10;11.54;-13.72;23.96;56.95
-7.84;-0.33;12.31;12.09;23.96;71.44
-5.44;-5.99;13.18;-12.85;18.30;56.95
3.38;16.55;11.54;-1.63;23.96;18.30
-1.42;2.07;7.51;4.79;18.30;-1.85
3.38;17.32;1.85;12.09;17.53;-35.61
4.25;-5.99;-2.94;22.54;18.30;-40.51
3.38;-28.53;-9.37;14.48;7.84;-50.97
7.41;1.20;-9.37;9.69;8.60;-34.85
9.04;-4.36;-12.63;20.15;18.30;-47.70
8.28;-20.47;-11.87;12.09;-5.88;-42.91
7.41;-14.92;-13.39;21.78;-2.61;-71.87
4.25;-4.36;-12.63;14.48;-3.48;-55.76
2.61;3.70;-7.84;3.27;-1.85;-22.00
0.22;8.49;-1.31;-0.00;-0.22;4.57
3.38;6.10;1.85;-1.63;-0.22;16.66
-7.08;-10.02;6.75;0.76;-9.04;39.31
0.22;-10.89;8.28;-11.33;-14.70;41.71
-6.32;4.46;7.51;-17.75;-17.97;44.10
-7.84;3.70;11.54;-13.72;-17.97;54.56
-4.68;6.10;17.97;-17.75;-20.36;36.81
-4.68;21.34;15.57;-19.38;-29.19;69.91
-4.68;29.40;8.28;-15.35;-20.36;50.53
-1.42;5.23;8.28;-15.35;-5.01;15.14
-1.42;4.46;8.28;-5.66;5.44;-9.91
1.74;-1.20;6.75;7.30;14.27;-31.58
4.25;2.07;-0.54;12.85;27.22;-48.57
7.41;-7.62;-8.60;15.35;28.75;-46.94
4.25;9.26;-8.60;12.09;20.69;-39.64
9.04;-5.99;-13.39;12.85;15.90;-45.30
4.25;-2.83;-14.27;12.09;7.84;-35.61
5.01;-5.23;-11.00;17.75;3.81;-63.82
1.74;-6.86;-11.87;8.82;-12.31;-46.94
3.38;-10.89;-1.31;7.30;-18.73;-19.60
1.74;-1.20;-26.35;4.79;-9.91;27.99
0.98;-4.36;-2.18;11.33;7.84;29.62
-0.65;6.86;17.21;-1.63;22.32;50.53
-4.68;31.04;9.91;-3.27;48.90;52.93
-5.44;-4.36;6.75;-11.33;15.14;54.56
-8.71;39.97;0.22;-11.33;4.57;61.86
3.38;6.10;9.15;-13.72;-17.97;46.50
-4.68;6.10;13.94;-38.66;-30.06;68.28
-8.71;6.86;15.57;-44.32;-33.21;42.47
-2.29;6.10;11.54;-6.43;-44.54;7.84
-2.29;5.23;17.97;-0.76;-16.33;-17.10
-3.81;-6.86;1.85;4.03;3.81;-35.61
-2.29;5.23;-5.34;9.69;18.30;-43.67
3.38;-2.83;-11.87;7.30;18.30;-48.57
3.38;-6.86;-11.87;13.72;13.50;-44.54
5.77;-40.62;-15.90;13.72;6.21;-48.57
4.25;-35.83;-11.00;-0.00;-2.61;-40.51
3.38;-6.86;-10.24;12.85;-5.01;-75.14
0.98;14.92;-12.63;-1.63;-14.70;-53.36
3.38;18.19;-7.84;-12.09;-17.10;-25.16
-2.29;1.20;-14.27;-2.40;-13.07;3.81
2.61;-1.20;-11.00;-3.27;-9.04;14.27
-2.29;4.46;4.25;-24.18;-3.48;43.34
-7.08;17.32;3.48;-19.38;3.05;44.10
-1.42;-12.41;8.28;-13.72;11.11;53.80
-6.32;-1.20;13.94;-40.29;13.50;61.86
-7.84;6.10;12.31;-13.72;11.11;51.40
-1.42;6.10;12.31;-12.09;10.24;76.34
-7.84;-4.36;20.36;-8.82;10.24;52.16
-11.11;4.46;12.31;-2.40;13.50;27.22
0.98;2.07;3.48;3.27;31.25;-4.25
0.98;-6.86;1.09;12.09;32.02;-30.06
3.38;1.20;-2.18;21.78;12.63;-43.67
9.04;-31.80;-13.39;25.81;1.42;-46.17
7.41;1.20;-14.27;20.15;-22.76;-42.91
7.41;2.83;-14.27;16.88;-42.14;-39.64
5.01;-4.36;-11.87;9.69;-40.51;-48.57
3.38;22.22;-12.63;4.03;-20.36;-73.51
4.25;24.61;-12.63;4.03;-8.28;-59.02
3.38;-14.05;-27.99;-0.76;6.21;-21.13
1.74;0.44;0.22;-0.76;13.50;13.50
0.22;24.61;-1.31;-4.03;5.44;21.56
-4.68;-2.83;6.75;-13.72;28.75;53.80
-5.44;8.49;3.48;-13.72;-10.67;51.40
-4.68;4.46;9.15;-9.69;-8.28;53.80
-1.42;33.43;15.57;17.75;-3.48;54.56
-7.08;3.70;14.81;-1.63;5.44;50.53
-3.81;4.46;12.31;-8.82;7.84;75.47
-3.81;7.73;2.72;-10.45;10.24;50.53
-1.42;6.86;12.31;10.45;12.63;15.90
-1.42;6.10;3.48;4.79;18.30;-11.54
3.38;-35.07;-14.27;1.63;5.44;-19.60
5.01;-14.05;-5.34;12.85;3.81;-42.91
10.67;-32.56;-18.30;20.91;3.81;-48.57
7.41;0.44;-11.87;23.30;2.18;-48.57
11.43;-4.36;-38.44;20.91;-7.51;-63.82
13.07;-1.20;-14.27;16.88;-14.70;-48.57
6.64;0.44;-4.57;18.51;-19.49;-74.38
5.01;-2.83;-15.90;12.09;-20.36;-55.76
3.38;-19.71;-6.21;-0.76;-21.13;-22.76
2.61;-1.96;-2.94;-11.33;-11.43;-0.22
-0.65;31.91;3.48;-8.82;-1.85;31.25
1.74;5.23;4.25;-40.29;0.54;43.34
-8.71;-0.33;6.75;-21.78;-1.85;52.16
-8.71;0.44;1.85;-49.99;1.42;47.37
-8.71;6.10;8.28;-18.51;-6.64;52.16
-11.11;6.10;9.15;-14.48;-7.51;43.34
-10.35;6.10;14.81;-14.48;0.54;95.61
-12.74;6.10;13.18;-5.66;3.81;44.10
-2.29;31.04;10.78;4.79;15.14;15.14
-2.29;2.83;1.85;-17.75;1.42;-9.91
2.61;-28.53;4.25;4.03;5.44;-29.19
5.77;-2.83;-2.94;11.33;11.11;-49.33
3.38;-6.86;-8.60;13.72;36.81;-41.27
5.01;-5.99;-21.45;13.72;12.63;-33.21
8.28;-4.36;-14.27;12.09;20.69;-7.51
10.67;-9.26;-11.00;22.54;25.59;-28.42
8.28;-5.23;-11.00;35.39;26.35;-62.29
9.04;-4.36;-11.00;12.09;19.93;-50.20
-0.65;-2.83;-6.21;10.45;19.93;-18.73
1.74;-3.59;-0.54;6.43;1.42;3.05
-0.65;0.44;-18.30;-0.76;-13.07;29.62
0.98;-4.36;7.51;-10.45;-26.03;52.16
-1.42;31.91;7.51;1.63;-41.27;45.74
-4.68;5.23;1.85;-5.66;-43.67;41.71
-10.35;-18.08;9.91;-13.72;-22.00;56.95
-3.81;17.32;12.31;-13.72;-19.49;52.93
-3.81;14.92;10.78;-24.18;11.11;60.22
-5.44;6.10;10.78;-16.12;18.30;45.74
-4.68;6.10;8.28;-13.72;19.17;8.60
1.74;34.30;5.12;-8.06;13.50;-20.36
3.38;6.10;-1.31;1.63;10.24;-41.27
1.74;-4.36;-4.57;12.09;3.81;-50.20
5.01;-1.96;-32.02;15.35;-1.85;-30.06
8.28;-31.80;-15.03;13.72;-9.04;-48.57
5.77;-12.41;-14.27;-3.27;0.54;-48.57
6.64;2.07;-15.03;16.88;-4.25;-46.17
7.41;-34.19;-15.90;16.12;0.54;-100.08
5.77;19.82;-15.90;9.69;-5.01;-59.02
3.38;1.20;-5.34;4.03;-12.31;-22.76
0.98;-6.86;-2.18;-4.03;-12.31;10.24
-0.65;-1.20;1.09;-6.43;-5.01;29.62
-3.81;-1.20;3.48;-11.33;-22.76;52.93
-7.08;6.10;25.26;-8.82;-9.04;55.43
0.98;2.07;10.78;-11.33;-9.91;58.59
-6.32;31.91;9.91;-8.06;-1.85;56.95
-7.08;2.83;10.78;-16.12;2.18;54.56
-3.81;5.23;12.31;-12.09;3.81;73.07
-7.08;-4.36;11.54;-5.66;3.05;48.90
-7.08;33.43;9.91;-0.76;40.08;21.56
-3.81;24.61;5.12;9.69;5.44;-7.51
3.38;-29.40;5.88;-14.48;5.44;-29.19
5.77;-2.83;-3.81;17.75;5.44;-42.91
5.01;-34.19;-9.37;12.09;-0.22;-48.57
4.25;-7.62;-11.00;13.72;-8.28;-57.39
2.61;26.24;-15.03;12.85;-8.28;-63.05
5.01;-5.99;-7.84;11.33;-9.04;-49.33
5.01;-4.36;-12.63;7.30;-15.46;-74.38
3.38;2.07;-5.34;6.43;-9.91;-55.76
4.25;-1.20;-2.94;-0.76;-12.31;-23.52
-3.81;1.20;-6.21;-5.66;0.54;5.44
-5.44;-1.20;-2.18;-4.79;-0.22;21.56
-5.44;6.10;4.25;-8.82;5.44;51.40
-4.68;4.46;11.54;-34.63;7.08;52.93
-6.32;3.70;11.54;-9.69;6.21;56.19
-7.08;6.10;12.31;-0.76;15.90;58.59
-11.87;-12.41;9.91;-4.03;20.69;54.56
-0.65;3.70;11.54;-5.66;20.69;77.10
-1.42;4.46;8.28;-3.27;15.14;52.16
-4.68;3.70;10.78;-4.03;5.44;15.14
3.38;-2.83;1.09;-1.63;3.05;7.08
2.61;-5.23;3.48;13.72;5.44;-31.58
5.01;-1.96;-13.39;19.38;8.60;-48.57
8.28;-20.47;-4.57;-6.43;6.21;-40.51
5.77;1.20;-11.00;12.85;-3.48;-44.54
11.43;7.73;-12.63;12.09;-12.31;-49.33
3.38;5.23;-16.66;11.33;-1.85;-42.91
4.25;17.32;-12.63;-22.54;-21.13;-75.90
-0.65;5.23;-12.63;24.18;-14.70;-58.26
0.98;-2.83;-8.60;-3.27;-5.01;-22.76
0.22;-22.11;-1.31;-1.63;5.44;10.24
-1.42;-25.37;15.57;4.79;2.18;31.25
0.98;4.46;3.48;-4.79;5.44;37.68
-5.44;2.07;5.12;-12.85;3.81;46.50
-7.84;8.49;8.28;-11.33;-6.64;50.53
-5.44;5.23;6.75;-14.48;0.54;53.80
-3.81;6.10;12.31;-16.88;5.44;44.10
-0.65;6.10;-11.00;-13.72;5.44;98.88
-5.44;31.91;-12.63;-9.69;-7.51;42.47
0.22;1.20;9.91;-6.43;-1.85;16.66
3.38;1.20;6.75;3.27;-33.21;-0.98
0.22;-4.36;25.26;8.82;-13.07;-37.24
0.98;-1.20;-2.94;3.27;3.05;-46.17
3.38;-5.99;-5.34;11.33;5.44;-46.94
3.38;-2.83;5.12;13.72;18.30;-46.17
3.38;-5.23;-18.30;10.45;11.11;-38.11
6.64;24.61;-12.63;14.48;5.44;-46.94
5.01;-5.99;-14.27;16.88;5.44;-71.11
5.77;-5.99;-11.87;9.69;-20.36;-51.73
2.61;-2.83;-7.84;-0.00;-2.61;-20.36
-4.68;16.55;-2.18;1.63;-5.88;3.05
2.61;0.44;0.22;-2.40;1.42;20.69
-0.65;6.10;5.12;-4.03;5.44;43.34
3.38;5.23;7.51;0.76;1.42;53.80
-2.29;6.86;-13.39;-12.09;5.44;69.91
-3.81;18.95;8.28;-16.88;13.50;54.56
-4.68;5.23;12.31;-13.72;15.14;54.56
-3.81;6.86;22.87;-16.12;13.50;72.31
-7.08;5.23;0.22;-11.33;6.21;65.88
2.61;6.10;11.54;-33.87;6.21;17.53
-0.65;-21.34;3.48;0.76;9.47;-5.88
2.61;-2.83;-0.54;-9.69;-7.51;-24.39
3.38;5.23;-2.18;4.79;-21.13;-48.57
9.80;-14.05;-2.18;13.72;-14.70;-48.57
5.77;-1.96;-7.84;21.78;-9.04;-50.97
7.41;21.34;-13.39;27.33;5.44;-43.67
7.41;4.46;-7.84;20.15;5.44;-43.67
7.41;-9.26;6.75;20.91;10.24;-74.38
7.41;-1.96;-12.63;12.09;7.08;-56.63
1.74;-27.77;9.91;4.79;11.11;-22.76
-5.44;-10.89;-0.54;-0.00;12.63;3.05
3.38;27.01;1.09;-4.03;-1.85;35.28
-5.44;-0.33;3.48;-5.66;-7.51;47.37
0.22;3.70;1.85;-12.85;-19.49;45.74
-3.05;-5.23;10.78;-13.72;-22.00;55.43
-10.35;-2.83;8.28;-10.45;-22.76;53.80
-9.47;10.89;11.54;-9.69;-25.16;50.53
0.98;6.10;10.78;-16.12;-20.36;70.68
-3.81;5.23;15.57;-11.33;15.14;44.10
-3.81;-27.01;7.51;-4.03;21.56;15.90
-1.42;0.44;7.51;-0.76;15.90;-15.57
0.98;-2.83;-0.54;2.40;4.57;-36.48
4.25;3.70;-3.81;4.79;-6.64;-46.17
5.77;-12.41;-38.44;11.33;-14.70;-30.82
8.28;2.07;-11.00;10.45;-13.07;-44.54
3.38;6.86;-11.00;4.03;-8.28;-38.11
4.25;-6.86;-12.63;12.09;0.54;-40.51
3.38;-34.19;-5.34;11.33;3.05;-71.11
5.77;-5.99;-12.63;8.06;6.21;-74.38
0.22;-27.77;-5.34;8.06;4.57;-26.79
0.98;12.52;-4.57;-0.00;6.21;-4.25
3.38;-1.20;-0.54;-0.76;5.44;27.99
-4.68;6.10;6.75;-4.79;3.81;14.27
-3.81;0.44;4.25;-4.79;6.21;54.56
-5.44;11.76;5.12;-11.33;5.44;59.46
-7.08;-5.99;8.28;-10.45;7.84;65.01
-3.81;6.10;11.54;-13.72;7.84;42.47
-4.68;6.10;17.97;-8.82;7.08;75.47
-7.08;4.46;4.25;-4.03;5.44;56.19
-6.32;6.10;10.78;-1.63;7.84;17.53
-1.42;16.55;5.88;4.79;3.81;-23.52
1.74;-5.23;1.85;8.06;5.44;-34.85
5.77;-2.83;-2.94;26.57;5.44;-39.64
5.77;-4.36;-11.00;10.45;7.84;-63.82
3.38;-32.56;-9.37;12.09;0.54;-47.70
11.43;-5.23;-15.03;16.12;-11.43;-41.27
3.38;-30.17;-18.30;11.33;-14.70;-48.57
2.61;-1.96;-11.87;25.81;-17.97;-75.14
3.38;-2.83;-11.00;7.30;-20.36;-63.05
3.38;-1.20;-11.00;4.79;-7.51;-30.06
0.22;2.83;0.22;-1.63;-19.49;-6.64
-3.81;0.44;3.48;-0.76;-8.28;23.20
-0.65;2.07;0.22;-8.82;3.05;46.50
1.74;5.23;10.78;-8.82;9.47;65.88
-0.65;6.10;6.75;-8.06;17.53;37.68
-3.81;23.85;10.78;-12.09;19.17;55.43
-1.42;0.44;9.15;-12.85;12.63;50.53
-0.65;27.01;16.33;-12.85;3.05;75.47
-5.44;24.61;16.33;-12.85;4.57;55.43
-2.29;2.07;5.12;-0.76;-5.01;40.08
-4.68;9.26;10.78;1.63;-17.97;1.42
3.38;18.95;0.22;26.57;-22.76;-34.85
7.41;20.58;-4.57;12.09;-24.39;-46.94
3.38;-0.33;-11.87;22.54;-4.25;-42.91
5.77;-5.99;-10.24;12.09;-10.67;-48.57
3.38;14.92;-7.84;12.09;17.53;-45.30
-1.42;24.61;-15.90;10.45;13.50;-47.70
3.38;20.58;-14.27;11.33;7.84;-74.38
3.38;-5.99;-14.27;7.30;17.53;-55.76
5.01;-4.36;-7.84;12.09;7.08;-26.79
-4.68;20.58;-3.81;28.97;-9.04;3.05
-1.42;1.20;-0.54;-28.21;-2.61;23.20
-0.65;-1.20;2.72;-0.00;-1.85;40.08
-2.29;6.10;6.75;-3.27;3.05;50.53
-4.68;-1.20;4.25;-28.97;3.81;53.80
-3.81;-2.83;12.31;-4.03;-8.28;54.56
-1.42;27.88;13.18;-8.06;-20.36;53.80
-5.44;6.10;9.91;-16.88;-18.73;68.28
1.74;-1.20;11.54;-28.97;-17.97;44.10
-1.42;14.16;13.18;-12.85;19.17;15.14
-3.81;6.10;2.72;-10.45;3.05;-9.91
0.98;5.23;-0.54;-2.40;0.54;-28.42
3.38;-2.83;-1.31;9.69;7.08;-13.07
12.31;-1.96;-8.60;-15.35;8.60;-46.17
5.77;19.82;-13.39;14.48;14.27;-48.57
3.38;-27.01;-15.03;17.75;15.90;-48.57
3.38;23.85;-16.66;19.38;17.53;-42.91
2.61;-6.86;-17.42;20.91;19.17;-48.57
5.77;-4.36;-11.87;10.45;14.27;-60.66
3.38;-4.36;-3.81;4.79;11.11;-46.94
4.25;10.89;-0.54;-0.76;-0.22;-9.04
-4.68;4.46;1.09;3.27;-7.51;19.93
1.74;0.44;14.81;-8.06;-18.73;36.81
-2.29;-7.62;8.28;-11.33;-20.36;52.93
-5.44;3.70;27.66;-9.69;-26.03;80.37
-2.29;5.23;7.51;-11.33;-27.55;58.59
-0.65;6.10;12.31;-16.12;-16.33;55.43
-3.81;-19.71;14.81;-13.72;-9.04;73.07
-4.68;3.70;10.78;-11.33;-0.22;52.16
-7.08;2.07;8.28;-1.63;6.21;18.30
-1.42;-1.20;0.22;8.06;7.08;-11.54
0.98;-0.33;-3.81;11.33;10.24;-53.36
5.77;0.44;-6.21;20.15;26.35;-43.67
1.74;-10.02;-11.87;16.12;25.59;-48.57
6.64;-27.01;-20.69;13.72;18.30;-34.09
4.25;-8.39;-12.63;0.76;10.24;-29.19
5.01;-5.99;-17.42;11.33;4.57;-26.79
3.38;1.20;-11.87;12.09;-8.28;-63.82
3.38;-6.86;-12.63;11.33;-11.43;-53.36
2.61;5.23;-1.31;0.76;-9.04;-26.79
-0.65;-2.83;0.22;-8.82;-2.61;3.05
-3.81;3.70;3.48;-1.63;0.54;20.69
-9.47;1.20;16.33;-1.63;0.54;59.46
-5.44;-1.20;7.51;-3.27;-6.64;46.50
-5.44;0.44;9.91;-11.33;-8.28;54.56
-4.68;6.86;12.31;-10.45;-13.07;54.56
-10.35;-17.32;12.31;-17.75;-11.43;42.47
-3.81;21.34;12.31;-15.35;-5.88;68.28
-4.68;6.86;17.21;-3.27;2.18;55.43
-4.68;-6.86;11.54;-2.40;2.18;18.30
0.98;0.44;8.28;-13.72;-0.22;-9.04
0.98;-1.96;-0.54;9.69;3.81;-23.52
3.38;2.83;-2.94;16.12;-1.85;-42.91
5.01;-6.86;-16.66;29.84;3.05;-49.33
5.77;29.40;-11.87;11.33;-1.85;-50.20
3.38;-5.23;-15.03;12.09;-0.22;-42.91
5.01;-23.74;-12.63;11.33;4.57;-36.48
5.77;-5.99;-9.37;12.09;7.84;-61.42
5.01;2.07;-17.42;7.30;17.53;-50.20
0.98;39.97;-7.84;8.82;21.56;-22.76
2.61;27.01;-0.54;4.79;19.17;8.60
-2.29;-1.96;0.22;-0.76;20.69;33.65
-6.32;2.07;11.54;-3.27;35.28;54.56
-3.81;2.07;6.75;12.85;31.25;50.53
-5.44;17.32;11.54;-5.66;11.11;54.56
-5.44;6.10;11.54;-8.06;-9.04;54.56
-6.32;6.10;11.54;-7.30;-29.19;43.34
-7.08;52.82;11.54;-18.51;-20.36;58.59
-7.84;9.26;25.26;-11.33;-57.39;41.71
-3.81;-6.86;2.72;-13.72;-46.17;3.05
-1.42;3.70;6.75;4.79;-34.85;-19.60
5.01;-1.20;0.22;-7.30;-17.10;-42.91
5.77;1.20;-0.54;-0.76;-1.85;-55.76
3.38;-14.05;-2.94;10.45;0.54;-50.97
3.38;-7.62;-11.00;8.06;3.05;-55.76
5.01;-29.40;-18.30;-25.81;-7.51;-42.14
3.38;22.98;-20.69;4.79;-15.46;-38.88
5.77;-5.99;-14.27;12.09;-12.31;-70.35
5.01;-4.36;-9.37;11.33;0.54;-56.63
1.74;-1.20;-8.60;10.45;17.53;-22.76
2.61;2.07;1.85;-4.79;27.22;3.05
-1.42;-1.96;4.25;-24.94;31.25;28.75
1.74;-14.92;3.48;-6.43;31.25;54.56
-3.81;4.46;-0.54;-12.85;15.90;55.43
-4.68;-19.71;12.31;-5.66;17.53;58.59
-2.29;2.07;13.18;-4.79;27.22;66.65
-5.44;27.88;11.54;-5.66;39.31;54.56
0.22;5.23;8.28;-12.85;32.78;72.31
-4.68;33.43;14.81;-4.79;18.30;53.80
-4.68;4.46;8.28;-0.00;-6.64;16.66
-5.44;37.46;7.51;-2.40;-11.43;-10.67
-1.42;-14.05;19.60;4.79;-23.52;-41.27
4.25;34.30;-6.21;8.06;-26.03;-48.57
5.77;-5.23;-9.37;12.09;-34.09;-49.33
2.61;18.19;-11.87;8.82;-32.45;-50.97
3.38;-1.20;-13.39;12.85;-24.39;-54.23
2.61;-2.83;-17.42;6.43;-14.70;-48.57
3.38;-10.89;-9.37;10.45;-6.64;-77.54
3.38;-1.96;-6.21;10.45;-5.88;-61.42
3.38;-31.04;-7.84;-4.79;-11.43;-48.57
3.38;-14.05;4.25;4.03;-17.97;-0.22
-4.68;6.86;3.48;-8.06;-20.36;31.25
-0.65;-2.83;5.12;-9.69;-5.01;41.71
-7.08;6.10;9.15;-12.09;6.21;52.16
-5.44;2.07;8.28;-12.09;-5.01;60.22
-4.68;4.46;-9.37;-5.66;20.69;64.25
-3.05;6.10;12.31;20.15;22.32;52.93
-5.44;6.10;11.54;-12.09;10.24;75.47
-8.71;5.23;12.31;-5.66;21.56;52.16
-4.68;-1.20;10.78;-6.43;17.53;23.20
1.74;6.10;-8.60;5.66;8.60;16.66
3.38;-19.71;-0.54;-2.40;7.84;-28.42
5.01;-1.96;-6.21;9.69;5.44;-41.27
3.38;-8.39;-11.00;1.63;5.44;-34.09
5.77;39.97;-17.42;7.30;3.05;-37.24
4.25;-4.36;-16.66;11.33;4.57;-37.24
5.77;-30.17;-11.00;35.39;7.84;-44.54
5.01;-3.59;-9.37;20.15;3.81;-69.48
-0.65;-32.56;-12.63;12.85;3.05;-65.45
-0.65;-19.71;-6.21;12.85;2.18;-33.21
1.74;-1.20;-1.31;-1.63;0.54;1.42
-1.42;4.46;-0.54;3.27;-2.61;26.35
-1.42;1.20;1.85;-12.85;-5.01;46.50
-5.44;2.07;5.88;8.06;-20.36;42.47
-8.71;6.10;7.51;-13.72;-9.04;50.53
-3.81;2.07;12.31;-10.45;-18.73;32.78
-8.71;6.10;12.31;-9.69;-8.28;44.87
3.38;6.10;12.31;-13.72;-3.48;65.88
-2.29;-1.20;16.33;-8.06;5.44;55.43
-4.68;2.83;9.91;-3.27;5.44;19.93
-2.29;31.91;5.12;-0.00;17.53;-5.88
2.61;18.19;-0.54;8.06;15.14;-28.42
3.38;1.20;-2.18;10.45;5.44;-39.64
3.38;-5.23;-8.60;13.72;7.84;-38.88
8.28;-14.05;-14.27;12.09;7.84;-39.64
5.77;-5.23;-17.42;16.88;3.81;-34.85
3.38;-6.86;-15.90;14.48;0.54;-38.88
3.38;-7.62;-11.87;13.72;-10.67;-78.41
2.61;-5.23;-15.03;12.09;-18.73;-57.39
-1.42;-11.65;-6.21;10.45;-45.30;-37.24
-1.42;4.46;-0.54;3.27;-31.58;8.60
0.98;-5.99;-0.54;-3.27;-38.11;23.20
2.61;3.70;1.85;20.91;-20.36;45.74
-7.84;16.55;3.48;-8.82;-2.61;49.77
-4.68;6.10;4.25;-8.06;11.11;54.56
-8.71;6.10;9.15;3.27;15.90;56.95
-2.29;4.46;12.31;-4.79;11.11;58.59
-7.08;2.83;14.81;-17.75;8.60;73.94
-2.29;-23.74;12.31;-15.35;1.42;54.56
-0.65;2.83;9.91;-4.79;-5.01;20.69
-1.42;16.55;4.25;-0.76;-9.04;-9.91
-2.29;31.91;-9.37;-1.63;-6.64;-34.09
3.38;4.46;-1.31;12.09;0.54;-50.97
3.38;-1.96;-8.60;12.09;19.17;-44.54
5.01;-5.23;-6.21;14.48;21.56;-47.70
9.04;-2.83;-14.27;19.38;42.47;-46.17
4.25;-2.83;-13.39;20.15;48.90;-38.11
6.64;-4.36;-17.42;12.85;32.78;-65.45
5.77;2.07;-9.37;8.06;14.27;-59.02
5.01;29.40;-2.94;-5.66;-15.46;-26.79
0.98;-1.96;8.28;-0.76;-36.48;-4.25
-2.29;14.92;1.85;-20.91;-47.70;26.35
-1.42;-18.95;1.09;-4.79;-53.36;42.47
-3.05;5.23;1.09;-9.69;-46.17;60.22
0.98;-2.83;8.28;-12.09;-26.79;54.56
-2.29;-23.74;11.54;-8.82;-6.64;58.59
-4.68;18.95;9.15;-16.12;13.50;41.71
-3.81;2.07;22.00;-8.82;26.35;66.65
-2.29;6.10;10.78;-5.66;20.69;47.37
-4.68;6.10;12.31;-6.43;27.22;16.66
-4.68;6.10;5.12;-4.79;23.96;-34.09
3.38;-1.96;-0.54;0.76;13.50;-22.00
1.74;-18.08;-0.54;12.09;6.21;-34.09
6.64;-2.83;-13.39;11.33;-4.25;-48.57
3.38;-31.04;-13.39;13.72;-8.28;-47.70
9.04;-9.26;-12.63;12.09;-9.04;-34.85
8.28;20.58;0.22;12.09;-9.91;-17.10
4.25;-6.86;-12.63;12.09;-8.28;-63.82
3.38;-27.77;-11.00;12.09;4.57;-59.79
3.38;-5.23;-2.18;8.06;7.84;-22.76
-2.29;-5.99;-2.94;-0.00;9.47;-0.98
-4.68;10.13;1.09;-6.43;20.69;28.75
2.61;4.46;5.12;-37.90;7.84;46.50
-4.68;6.10;8.28;-11.33;11.11;48.90
-1.42;2.07;7.51;-6.43;2.18;46.50
-9.47;6.86;9.91;-13.72;-2.61;54.56
-5.44;5.23;11.54;-13.72;-5.88;55.43
-1.42;6.10;16.33;-17.75;-9.91;66.65
-7.08;6.10;12.31;-11.33;-2.61;51.40
2.61;5.23;8.28;-28.21;17.53;23.20
-2.29;2.07;7.51;-0.76;5.44;-10.67
0.98;-8.39;5.12;6.43;10.24;-25.16
3.38;-2.83;-5.34;9.69;7.08;-40.51
3.38;-6.86;-9.37;14.48;3.81;-50.20
1.74;-30.17;-10.24;17.75;-1.85;-46.17
5.01;-4.36;-10.24;20.91;-12.31;-65.45
9.04;-5.99;-13.39;12.09;-10.67;-48.57
2.61;-5.99;-12.63;15.35;5.44;-64.69
4.25;8.49;-19.06;12.09;-9.91;-53.36
3.38;-1.20;-5.34;-9.69;-4.25;-32.45
3.38;-19.71;-5.34;-8.06;3.81;-9.91
-1.42;-5.23;-3.81;-1.63;3.81;28.75
0.98;31.91;4.25;-0.00;5.44;44.10
-7.08;-1.20;9.91;-5.66;11.11;50.53
-7.08;-22.11;13.18;-1.63;17.53;66.65
-7.08;2.07;13.94;-4.79;22.32;64.25
-6.32;8.49;13.18;-8.82;19.93;49.77
-3.81;5.23;13.18;-13.72;5.44;69.04
-5.44;39.97;12.31;-16.12;4.57;50.53
-3.81;5.23;9.15;-6.43;1.42;24.72
-1.42;4.46;-0.54;-1.63;-6.64;-10.67
6.64;6.10;2.72;12.85;-6.64;-33.21
4.25;-1.20;-0.54;11.33;-27.55;-38.11
9.04;-1.96;-1.31;14.48;-20.36;-47.70
6.64;-7.62;-11.00;28.97;-18.73;-46.17
12.31;16.55;-11.00;14.48;-5.01;-60.66
4.25;-5.23;-15.90;7.30;-6.64;-38.11
3.38;-14.05;-11.00;-13.72;-5.01;-72.75
5.77;-28.53;-5.34;12.09;-6.64;-60.66
2.61;-1.20;-7.84;33.00;-9.04;-27.55
-2.29;2.83;-1.31;-8.82;3.05;3.05
-3.81;-2.83;-0.54;-13.72;-1.85;16.66
-7.84;-1.20;1.85;-13.72;23.96;40.08
-10.35;30.27;5.12;0.76;4.57;39.31
-7.08;-6.86;5.12;-9.69;-2.61;45.74
-4.68;0.44;11.54;-25.81;-14.70;54.56
-4.68;-18.08;10.78;-10.45;-9.91;49.77
-5.44;2.83;13.18;-29.84;-11.43;59.46
-5.44;6.10;17.21;-24.94;-19.49;48.90
-3.81;6.10;10.78;-4.79;-8.28;19.93
1.74;1.20;5.12;-9.69;-7.51;-1.85
3.38;-41.49;22.87;1.63;-1.85;-28.42
3.38;-16.44;-7.84;7.30;5.44;-41.27
4.25;20.58;-11.87;11.33;9.47;-47.70
7.41;-5.23;-6.21;20.15;11.11;-25.16
2.61;-4.36;-26.35;22.54;22.32;-48.57
3.38;-6.86;-14.27;32.23;29.62;-31.58
5.01;2.07;-6.21;23.30;22.32;-31.58
3.38;-4.36;-7.84;16.88;12.63;-52.60
4.25;-2.83;-3.81;33.87;6.21;-26.79
1.74;-4.36;-1.31;1.63;5.44;5.44
-3.81;20.58;-7.84;-0.76;-6.64;24.72
-0.65;5.23;2.72;-2.40;-11.43;49.77
-3.81;-27.77;7.51;-6.43;-20.36;52.16
-7.84;3.70;9.91;-4.79;-0.98;56.19
-3.81;2.83;12.31;-11.33;-34.09;62.62
3.38;6.10;12.31;-5.66;2.18;43.34
-11.87;3.70;12.31;-8.06;12.63;59.46
-1.42;2.07;12.31;-24.18;1.42;53.80
-3.81;6.10;-0.54;-0.76;9.47;12.63
2.61;3.70;5.12;1.63;7.84;-11.54
1.74;2.07;-0.54;1.63;7.84;-31.58
4.25;0.44;-0.54;11.33;9.47;-47.70
1.74;-15.68;-5.34;12.09;7.08;-57.39
5.01;-5.99;-11.87;12.85;-20.36;-46.94
4.25;-5.99;-9.37;16.12;-8.28;-41.27
4.25;-5.23;-9.37;12.09;-15.46;-30.82
3.38;-9.26;-15.03;12.85;-13.07;-68.72
5.77;-9.26;-9.37;8.06;-17.97;-60.66
3.38;20.58;-7.84;1.63;-20.36;-30.82
-1.42;-40.62;8.28;-8.06;-14.70;-30.06
0.98;31.04;-0.54;-12.85;4.57;18.30
0.98;2.07;-8.60;-12.09;14.27;48.90
-4.68;3.70;9.15;-12.85;30.38;58.59
-5.44;6.10;8.28;-0.76;44.10;60.22
-8.71;-14.05;13.94;-0.76;41.71;60.22
-4.68;6.10;6.75;-9.69;17.53;56.95
-3.81;2.07;12.31;-13.72;1.42;71.44
-5.44;7.73;17.21;-6.43;-20.36;47.37
-0.65;-2.83;0.22;-4.79;-32.45;18.30
-0.65;2.83;17.97;-4.79;-30.82;-7.51
3.38;-9.26;2.72;37.90;-25.16;-30.06
3.38;-2.83;-0.54;10.45;-24.39;-43.67
4.25;-5.99;-7.84;14.48;-17.10;-49.33
3.38;1.20;-11.00;8.06;-18.73;-52.60
4.25;-1.96;-23.96;8.06;-7.51;-47.70
7.41;-6.86;-15.90;12.09;-5.88;-48.57
4.25;-4.36;-15.03;8.06;-2.61;-74.38
2.61;-4.36;-6.21;9.69;14.27;-66.32
-3.81;23.85;-8.60;3.27;27.22;-40.51
-1.42;-5.99;-7.84;-2.40;19.93;3.05
2.61;-6.86;-1.31;-24.94;23.96;24.72
-0.65;-40.62;17.97;-3.27;19.93;71.44
-1.42;1.20;8.28;-12.85;12.63;80.37
-4.68;6.10;9.91;-4.79;-3.48;32.78
-5.44;33.43;7.51;-9.69;-19.49;54.56
-3.81;-4.36;12.31;-5.66;-20.36;49.77
-5.44;31.91;11.54;-12.09;-40.51;72.31
-8.71;6.10;12.31;-33.87;-7.51;52.93
-8.71;14.92;14.81;-2.40;3.05;27.22
-7.08;2.83;8.28;-0.76;4.57;-5.88
-2.29;-18.08;-0.54;4.03;8.60;-23.52
5.01;6.86;-11.00;12.09;12.63;-43.67
6.64;3.70;-7.84;16.12;7.84;-71.11
3.38;-5.23;-11.87;1.63;7.84;-49.33
9.04;6.10;-15.90;14.48;4.57;-47.70
3.38;-2.83;-15.90;12.85;3.81;-48.57
5.77;14.16;-26.35;12.09;1.42;-70.35
13.07;-5.23;-13.39;10.45;5.44;-57.39
3.38;-4.36;-4.57;8.06;3.81;-22.76
-4.68;-18.08;-1.31;-0.76;3.05;4.57
-0.65;-1.20;1.09;-5.66;-0.22;21.56
3.38;32.67;1.85;4.79;-9.04;44.10
-4.68;2.83;9.91;-12.85;5.44;50.53
