4.68;-2.83;-11.11;3.59;31.69;-22.00
-6.53;27.77;-5.44;4.46;22.76;-21.13
0.65;-27.01;-9.47;-1.20;-3.81;-29.19
1.52;-9.26;-9.47;1.20;-25.48;-18.73
0.65;-5.23;-2.29;-2.07;-33.54;-10.67
0.65;-1.20;-0.65;-2.83;-27.99;-1.85
1.52;-1.96;-0.65;1.20;-9.37;2.18
-7.41;1.20;1.74;16.44;17.97;16.77
-4.14;0.44;5.01;-2.83;5.12;15.14
1.52;2.07;33.21;-6.10;17.97;9.47
2.29;4.46;7.41;-3.59;15.57;22.32
-4.14;1.20;3.38;-27.01;5.88;25.59
3.16;5.23;8.17;-2.07;-2.18;31.25
-2.50;3.70;5.01;-0.44;-10.24;15.14
-0.87;-1.20;-1.42;3.59;-15.03;2.18
2.29;4.46;6.64;1.20;-6.21;-2.61
11.98;-4.36;1.74;11.65;7.51;-21.13
3.16;-0.33;-0.65;5.99;19.60;-16.33
3.16;-3.59;-1.42;14.05;26.03;-15.46
3.92;-2.83;-3.05;-22.98;35.72;-12.31
3.16;-2.83;-4.68;7.62;18.73;-13.07
-16.99;-2.83;-10.35;23.74;5.88;-22.00
0.65;3.70;-7.84;3.59;1.85;-40.51
3.16;3.70;-11.11;3.59;-8.60;-11.43
-4.14;-6.86;-0.65;-2.07;-18.30;-10.67
3.16;10.13;-0.65;12.41;-20.69;-0.22
3.16;-3.59;0.98;-2.83;-19.93;9.47
3.16;2.07;1.74;-9.26;-16.66;17.53
1.52;4.46;3.38;-10.13;-9.37;19.17
-35.61;6.10;5.01;-6.86;-18.30;24.83
-4.90;2.07;8.17;-8.49;-10.24;23.20
-2.50;4.46;3.38;-10.89;-2.94;27.22
-4.90;6.10;-18.40;-5.23;2.72;27.99
-0.11;5.23;0.98;-1.20;0.22;-10.67
1.52;-0.33;10.67;-0.44;-8.60;6.21
1.52;0.44;1.74;-1.20;-5.34;-3.38
3.16;0.44;-0.65;2.83;-0.54;-14.70
1.52;-2.83;-5.44;-0.44;1.09;-16.33
0.65;-7.62;-19.93;6.86;7.51;-6.64
3.92;-4.36;-5.44;11.65;13.18;-23.52
3.16;-4.36;-6.32;11.65;16.33;-17.97
3.16;-1.20;-9.47;11.65;15.57;-22.00
-4.14;-1.20;-9.47;5.23;5.12;-28.42
0.65;1.20;-3.81;4.46;0.22;-22.76
3.16;-1.20;-7.84;1.20;-0.54;-26.03
2.29;1.20;11.43;-1.20;5.12;2.18
-4.14;6.10;1.74;8.39;13.18;15.14
-2.50;5.23;4.14;-1.20;18.73;25.59
1.52;4.46;1.74;-2.07;4.25;40.95
-12.20;-1.20;6.64;-5.23;-6.97;27.99
-7.41;-14.92;5.01;-10.89;-8.60;27.99
-7.41;5.23;2.61;-3.59;-12.63;22.32
-0.87;-1.20;5.01;-5.23;-22.32;28.86
-5.77;4.46;7.41;-1.20;-20.69;15.90
28.86;2.07;8.17;11.65;-11.87;10.24
3.92;5.23;5.01;3.59;-9.37;-9.91
-1.74;-7.62;1.74;3.59;-15.03;-21.13
2.29;24.61;-0.65;11.65;4.25;-21.13
28.86;-27.01;-0.65;8.39;6.75;-22.76
-0.87;-2.83;-5.44;10.02;-13.39;-17.97
0.65;-1.96;-12.74;7.62;5.12;-19.49
3.92;0.44;-5.44;1.20;6.75;-19.49
3.16;-1.20;-5.44;-1.20;16.33;-24.39
-7.41;-8.39;-5.44;6.86;16.33;-11.43
3.16;-2.83;-5.44;-2.07;29.29;-7.41
3.16;-1.96;-8.71;-2.07;30.82;2.18
3.16;3.70;-0.65;-22.98;30.82;15.14
0.65;-14.05;1.74;-2.07;18.73;23.96
-1.74;-10.89;4.14;-10.13;5.12;22.32
-6.53;0.44;0.11;-1.20;-32.78;22.32
-4.14;1.20;5.01;-2.83;-45.63;17.53
-4.14;-2.83;21.89;-9.26;-59.35;27.99
-21.02;6.10;5.01;-14.16;-55.32;23.96
-0.87;6.10;7.41;-3.59;-34.41;16.77
-4.90;2.83;-0.65;-2.83;-11.87;4.68
1.52;31.04;5.01;-5.23;-9.37;-9.04
1.52;-4.36;0.98;-3.59;5.12;-22.76
2.29;22.98;-0.65;-27.77;6.75;-27.55
1.52;34.30;-0.65;-27.77;10.78;-27.55
2.29;-8.39;-5.44;0.44;10.78;-26.03
3.16;-7.62;8.17;5.99;5.12;-23.52
-9.80;-2.83;-7.84;2.83;2.72;-23.52
-0.11;2.07;6.64;5.99;5.12;-27.55
3.16;-5.23;-7.84;4.46;5.12;-14.70
1.52;-1.20;-3.81;10.02;-0.54;-1.85
-2.50;-2.83;-0.65;2.83;-2.18;3.05
-10.56;-1.96;-0.65;6.86;-6.97;22.32
-5.77;-1.96;1.74;-5.23;-0.54;27.99
-2.50;2.07;1.74;0.44;5.12;27.99
-0.87;1.20;5.01;-2.07;12.31;32.89
-0.87;6.10;7.41;2.83;9.15;27.99
13.61;3.70;3.38;7.62;10.78;31.25
2.29;5.23;8.17;3.59;9.15;39.31
-0.87;2.83;8.17;1.96;9.15;16.77
2.29;3.70;7.41;-0.44;10.78;25.59
17.64;-1.20;-0.65;-3.59;12.31;-2.61
3.16;-5.23;-0.65;-8.49;9.15;-17.97
0.65;-5.23;5.01;-1.20;5.88;-25.16
-5.77;-1.20;-3.05;-0.44;2.72;-22.76
-0.87;-0.33;-8.71;6.86;1.85;-24.39
0.65;-2.83;-9.47;7.62;3.48;-23.52
3.16;-5.23;-10.35;10.02;-3.81;-31.58
2.29;-1.20;-3.05;1.96;-2.94;-38.88
3.16;1.20;-5.44;3.59;-6.97;-5.01
13.61;0.44;-4.68;2.83;-10.24;-11.43
3.16;-1.96;-1.42;0.44;-20.69;1.42
-1.74;2.07;0.98;-11.65;-1.31;17.53
-1.74;6.10;5.01;-3.59;17.97;19.17
2.29;6.10;7.41;-1.20;30.82;20.80
3.16;6.10;2.61;-3.59;13.18;19.17
-0.11;6.86;4.14;-2.07;-10.24;27.99
-4.90;29.40;6.64;-6.86;-34.41;28.86
-2.50;1.20;9.80;-2.07;-46.50;27.99
-1.74;2.07;6.64;-2.07;-59.35;13.50
-1.74;1.20;13.07;3.59;-42.47;2.18
-5.77;24.61;0.98;-18.19;-12.63;-5.01
0.65;1.20;-0.65;2.83;7.51;-23.52
3.16;2.07;-0.65;3.59;14.70;-19.49
0.65;-5.23;-3.05;-6.86;17.97;-25.16
1.52;-1.96;-7.84;8.39;13.18;-47.70
-6.53;-4.36;-5.44;11.65;6.75;-21.13
3.16;-2.83;-9.47;14.05;-2.18;-23.52
-0.87;-30.17;-3.81;4.46;-5.34;-30.82
-0.87;2.83;-4.68;4.46;1.85;-15.46
3.16;-4.36;-8.71;6.86;7.51;-6.64
0.65;0.44;-0.65;2.83;22.00;-5.01
3.16;0.44;3.38;4.46;25.26;18.30
-5.77;-23.74;6.64;-1.20;20.36;27.99
-0.87;6.10;9.80;2.83;18.73;26.35
-28.31;4.46;5.01;-3.59;7.51;27.22
2.29;1.20;8.17;-1.20;12.31;25.59
-2.50;4.46;11.43;-1.20;6.75;3.05
-0.11;-2.83;7.41;-8.49;3.48;30.38
3.16;2.07;11.43;-3.59;-6.97;15.90
-1.74;2.07;6.64;-2.07;5.12;6.21
-1.74;-1.20;5.01;-7.62;12.31;-2.61
0.65;1.20;-3.81;0.44;-3.81;-19.49
0.65;-1.20;-3.05;0.44;-7.84;-22.76
3.92;-1.20;5.01;3.59;-20.69;-13.94
3.16;-2.83;-3.05;9.26;-24.72;-23.52
3.92;-3.59;-7.84;3.59;-52.16;-20.36
4.68;-2.83;-7.08;26.14;-32.78;-23.52
2.29;-4.36;-7.84;22.11;-18.30;-34.09
0.65;-6.86;-5.44;6.86;-24.72;-23.52
-21.89;-4.36;-1.42;1.20;5.12;-9.04
-1.74;-1.20;10.67;-6.10;5.88;2.18
3.16;0.44;1.74;-5.23;4.25;7.08
1.52;0.44;0.11;-10.13;4.25;17.53
-0.87;-32.56;5.01;-6.10;5.88;19.93
0.65;3.70;8.17;-3.59;10.78;23.96
-13.83;-24.50;9.04;12.41;10.78;24.83
-1.74;5.23;5.01;-1.20;5.88;15.90
-8.93;3.70;10.67;-3.59;9.91;26.35
0.65;6.86;9.80;-2.83;9.91;19.17
-1.74;5.23;3.38;1.96;5.12;3.05
-4.14;5.23;1.74;10.89;4.25;-3.38
-0.87;2.07;-0.65;-1.20;-2.18;-13.07
1.52;2.07;-3.05;4.46;-12.63;-19.49
5.55;3.70;-0.65;6.86;-20.69;-20.36
0.65;-1.20;-11.87;4.46;-19.93;-22.76
3.92;-5.23;-4.68;7.62;-15.90;-22.76
7.19;-1.96;-11.11;4.46;-18.30;-20.36
2.29;-5.99;-7.84;6.86;-10.24;-30.82
3.16;-4.36;-6.32;-21.34;-10.24;-15.46
-2.50;-1.96;-0.65;1.20;8.28;-0.98
-1.74;2.07;-3.05;4.46;15.57;7.08
-9.80;0.44;0.11;-1.20;3.48;23.96
1.52;2.07;8.17;4.46;20.36;23.20
16.77;4.46;8.17;4.46;36.48;27.99
-2.50;1.20;5.01;9.26;31.69;25.59
23.30;-1.96;3.38;1.20;25.26;27.22
0.65;0.44;9.80;-5.23;-5.34;27.22
-0.87;2.83;-11.87;-9.26;-20.69;40.95
-4.14;6.10;17.10;-1.20;-29.51;14.27
0.65;6.86;6.64;34.19;-18.30;1.42
3.16;4.46;3.38;1.20;5.12;-10.67
0.65;-1.96;-0.65;-2.07;10.78;-22.76
-0.11;2.07;-7.08;-3.59;-0.54;-23.52
3.16;-3.59;-7.84;-2.07;-17.42;-49.33
5.55;-5.23;-7.08;0.44;-20.69;7.84
28.86;-4.36;-8.71;-1.20;-26.35;-20.36
3.16;1.20;-6.32;0.44;-34.41;-23.52
-1.74;-1.96;-9.47;1.96;-33.54;-33.21
-1.74;0.44;-5.44;1.96;-47.26;-23.52
2.29;2.83;-4.68;-0.44;-18.30;-6.64
-0.87;-1.20;-3.05;0.44;5.12;-2.61
-2.50;-4.36;-0.65;1.20;21.24;-8.28
-4.90;1.20;3.38;3.59;22.76;17.53
-1.74;0.44;5.01;3.59;26.79;17.53
3.16;-4.36;6.64;-2.07;18.73;23.20
2.29;2.07;8.17;27.01;46.17;24.83
-0.87;1.20;5.01;-1.20;30.82;24.83
-7.41;3.70;-3.05;-6.10;20.36;27.99
1.52;6.10;6.64;-16.55;4.25;16.77
-0.87;2.83;5.01;-1.20;-20.69;7.84
1.52;5.23;0.98;-5.23;-29.51;-5.01
-1.74;0.44;3.38;-2.07;-29.51;-20.36
2.29;0.44;-13.50;0.44;-17.42;-22.00
-0.11;-1.96;-0.65;-0.44;-13.39;-26.03
0.65;-1.96;-5.44;1.20;-0.54;-23.52
2.29;-1.96;-11.87;11.65;5.12;-22.76
-0.87;-5.23;-7.84;5.99;1.09;-18.73
0.65;3.70;-1.42;3.59;5.12;-28.42
-0.87;-0.33;-0.65;2.83;5.12;-13.07
8.71;6.10;-0.65;-4.46;5.12;-5.88
-2.50;-5.23;1.74;-3.59;7.51;0.65
2.29;-4.36;3.38;-0.44;9.15;13.50
-4.14;-32.56;-0.65;1.96;7.51;27.22
-1.74;5.23;5.01;6.86;9.15;18.30
0.65;5.23;8.17;-4.46;5.12;27.99
3.16;2.07;12.20;1.20;6.75;40.95
2.29;5.23;8.17;-1.20;-2.18;29.62
-0.87;4.46;27.55;2.83;-3.81;2.18
3.16;6.10;10.67;-2.83;13.94;17.53
3.16;26.24;6.64;1.20;30.06;2.18
3.16;1.20;4.14;2.83;35.72;-2.61
-30.71;-6.86;-0.65;2.83;18.73;-14.70
7.19;7.73;-5.44;3.59;3.48;-19.49
2.29;1.20;-3.05;2.83;-9.37;1.42
33.76;-5.23;-3.81;-2.83;-32.02;-19.49
34.52;1.20;-5.44;-5.23;-53.69;-23.52
3.16;-5.99;-11.11;-0.44;-65.01;-23.52
3.16;-4.36;-9.47;3.59;-49.66;-30.82
0.65;-1.20;-4.68;3.59;-31.15;-22.76
-2.50;2.83;-2.29;4.46;4.25;-9.91
-28.31;-1.20;-0.65;0.44;30.82;-6.64
32.13;4.46;0.11;-0.44;32.45;12.74
-1.74;-1.96;1.74;2.83;30.82;15.14
-3.38;1.20;13.07;-4.46;20.36;41.71
0.65;1.20;0.11;-2.83;7.51;22.32
1.52;0.44;7.41;-0.44;-2.18;22.32
-4.14;1.20;7.41;-1.20;-8.60;25.59
-0.87;0.44;8.17;-3.59;-15.90;27.99
-4.90;-1.96;9.80;-31.04;-15.03;13.50
-1.74;2.83;5.01;-5.23;-10.24;2.18
-4.14;4.46;2.61;-2.07;-11.00;-8.28
-0.87;2.83;-1.42;-3.59;-7.84;-22.00
19.28;0.44;-3.05;-3.59;-4.57;-23.52
2.29;-1.20;-3.05;4.46;7.51;-23.52
-2.50;0.44;-32.02;4.46;5.88;-23.52
3.16;0.44;-11.87;5.99;6.75;-22.76
-0.87;-2.83;-11.87;4.46;-6.21;-22.00
3.16;-6.86;-8.71;1.20;-6.97;-31.58
-5.77;6.10;-3.81;5.99;-2.18;-15.46
1.52;0.44;-1.42;5.99;5.12;-5.01
-1.74;-11.65;1.74;-11.65;4.25;7.84
-0.87;-5.23;0.11;5.99;5.88;16.77
1.52;-1.20;0.98;-1.20;4.25;23.20
0.65;0.44;0.11;-1.20;5.88;2.18
1.52;-8.39;8.17;-3.59;4.25;27.99
0.65;3.70;8.17;1.20;5.12;24.83
3.16;-26.14;5.01;-9.26;-2.18;26.35
1.52;8.49;26.79;-2.07;13.94;33.65
3.16;0.44;12.20;-18.95;20.36;25.59
-2.50;4.46;8.17;0.44;18.73;27.22
2.29;5.23;-6.32;7.62;18.73;15.90
1.52;-1.20;-0.65;9.26;25.26;-5.88
-0.11;-5.23;-0.65;-22.22;18.73;-11.43
-8.93;-1.96;-1.42;10.89;20.36;-17.97
3.16;3.70;-27.22;7.62;15.57;6.21
3.16;-8.39;-5.44;6.86;-2.94;-14.70
27.33;24.61;-6.32;7.62;-19.93;-23.52
-1.74;-4.36;-9.47;9.26;-39.20;-34.85
2.29;1.20;-8.71;4.46;-48.13;-24.39
2.29;-3.59;-2.29;-1.20;-51.29;-17.97
1.52;-1.96;0.98;-14.16;-51.29;-9.04
0.65;-1.20;-3.05;-14.16;-44.87;2.18
-4.90;-5.23;9.80;-14.16;-33.54;2.18
-4.90;6.10;-7.84;-13.29;-24.72;-23.52
-4.14;-2.83;1.74;-0.44;-13.39;16.77
-0.87;2.83;3.38;-9.26;-5.34;13.50
-8.93;2.07;6.64;-9.26;18.73;16.77
-8.93;5.23;5.01;-11.65;33.32;33.65
-5.77;6.10;3.38;-8.49;41.38;27.99
0.65;1.20;4.14;-4.46;46.17;12.74
-0.87;1.20;3.38;8.39;45.41;2.18
3.16;0.44;0.98;11.65;54.99;-6.64
2.29;2.07;-25.59;10.89;54.99;-13.07
3.92;-1.20;0.98;10.02;30.82;-17.97
3.92;-2.83;-3.05;12.41;5.88;-19.49
-17.86;-4.36;-6.32;-16.55;-15.90;-15.46
2.29;2.07;-7.84;7.62;-19.93;-22.76
3.16;1.20;-7.84;45.52;-32.02;-35.61
3.16;-1.96;8.17;2.83;-68.28;-24.39
0.65;-2.83;-0.65;-1.20;-83.53;-10.67
0.65;3.70;-0.65;-4.46;-75.47;-2.61
-0.11;-5.99;1.74;-5.23;-46.50;6.21
-4.90;30.27;3.38;-8.49;-19.06;12.74
-4.90;0.44;5.01;-12.52;9.15;15.90
-4.90;1.20;5.01;-3.59;23.63;15.90
-23.52;-1.20;5.01;-14.16;30.82;19.17
-4.14;2.83;6.64;-5.23;30.82;23.20
-4.90;6.10;11.43;-1.20;30.82;27.99
-0.87;3.70;5.01;1.20;26.79;17.53
3.16;2.07;5.01;-1.20;17.21;3.05
3.16;0.44;5.77;2.83;22.76;-0.98
-0.87;13.29;1.74;9.26;3.48;-12.31
1.52;26.24;-0.65;6.86;13.94;-16.33
3.16;0.44;-0.65;7.62;16.33;-19.49
2.29;-4.36;-3.81;7.62;1.09;-18.73
3.16;-1.20;-6.32;4.46;3.48;-17.97
4.68;-23.74;-5.44;4.46;2.72;-16.33
3.16;-3.59;-2.29;11.65;-3.81;-28.42
-2.50;-32.56;-2.29;3.59;-2.18;-18.73
3.16;5.23;-1.42;0.44;-6.97;11.87
0.65;24.61;0.98;1.20;-3.81;3.81
2.29;-2.83;-9.47;0.44;5.12;10.24
-0.87;0.44;-12.74;-1.20;2.72;6.21
1.52;4.46;1.74;-5.23;-6.21;19.17
0.65;2.07;1.74;-10.13;-4.57;19.17
0.65;5.23;-0.65;-10.13;-3.81;23.20
-1.74;3.70;4.14;25.37;-6.21;27.99
-1.74;6.10;8.17;-6.86;-0.54;28.86
-0.87;2.83;12.20;-8.49;9.15;15.14
1.52;-1.96;7.41;-1.20;5.12;2.18
28.10;0.44;0.11;0.44;-12.63;-11.43
0.65;2.07;0.11;7.62;-15.03;-23.52
-1.74;1.20;-1.42;2.83;-19.93;7.08
0.65;4.46;0.11;10.02;-19.93;-22.76
-0.11;-2.83;-3.05;5.23;-32.02;-21.13
1.52;-4.36;-6.32;10.89;-29.51;-22.00
2.29;-3.59;-11.87;6.86;-15.90;-12.31
2.29;-7.62;-8.71;4.46;13.94;-12.31
-0.87;-4.36;-11.11;-0.44;22.76;-19.49
-0.87;0.44;-0.65;-2.07;26.79;-11.43
-8.93;-1.20;-0.65;-5.23;17.21;7.84
-2.50;4.46;0.98;-2.83;9.15;15.90
-0.11;3.70;1.74;-3.59;5.12;24.83
-0.87;5.23;4.14;-4.46;-5.34;20.80
-1.74;5.23;0.11;-3.59;-20.69;27.99
-4.14;2.07;0.11;-0.44;-7.84;26.35
-5.77;5.23;3.38;-0.44;5.12;28.86
-5.77;-4.36;7.41;0.44;14.70;29.62
1.52;2.83;4.14;-1.20;20.36;17.53
17.64;8.49;3.38;-0.44;29.29;7.08
-17.86;26.24;4.14;-2.07;22.00;-8.28
3.92;-2.83;-0.65;-1.20;17.21;-21.13
3.16;-21.34;-3.05;-9.26;6.75;-22.00
0.65;-4.36;-9.47;29.40;-2.18;-21.13
0.65;-4.36;-4.68;-0.44;-36.05;-23.52
3.16;-5.99;-7.84;12.41;-20.69;-24.39
3.16;5.23;-7.84;0.44;-20.69;-23.52
-0.87;7.73;-7.84;2.83;-13.39;-26.03
3.16;-4.36;-6.32;-5.23;-6.21;-17.97
0.65;-12.41;-4.68;-0.44;-6.97;-14.70
2.29;1.20;-0.65;-1.20;-6.21;-6.64
-5.77;4.46;-0.65;-5.23;1.09;10.24
-7.41;-27.01;0.11;-4.46;1.85;7.84
-2.50;2.07;6.64;-1.20;-3.81;11.11
-2.50;-2.83;6.64;-2.07;-12.63;15.90
1.52;-1.96;7.41;2.83;-2.18;23.96
-2.50;4.46;7.41;10.02;19.60;3.05
2.29;-20.47;8.17;1.20;21.24;27.99
-0.87;6.10;8.17;-3.59;9.15;19.93
-35.61;-4.36;4.14;-10.89;-21.45;11.11
-0.11;1.20;6.64;-11.65;-23.09;1.42
0.65;-4.36;0.98;-14.16;-19.93;-11.43
-2.50;1.20;14.70;-4.46;1.85;-22.00
-4.14;-1.20;-4.68;-2.07;5.88;-16.33
2.29;-21.34;-3.05;4.46;5.88;-20.36
3.16;2.07;13.83;-0.44;5.12;-11.43
2.29;6.10;-4.68;9.26;1.85;-18.73
3.16;-5.99;-9.47;9.26;-2.18;-31.58
-1.74;-1.20;-3.81;5.99;7.51;-21.13
0.65;-1.96;-5.44;14.05;-4.57;-9.04
2.29;1.20;1.74;19.71;5.12;1.42
2.29;35.07;0.98;-4.46;-2.18;15.14
2.29;-2.83;1.74;-8.49;-6.97;18.30
3.92;-2.83;-4.68;-1.20;4.25;38.44
0.65;-0.33;20.26;-3.59;9.15;27.22
-12.20;1.20;9.04;-2.07;17.21;23.96
-0.87;4.46;5.01;-0.44;17.21;27.22
-4.14;5.23;5.01;-0.44;17.97;27.99
3.16;6.10;4.14;-0.44;13.94;16.77
-0.87;4.46;5.01;-3.59;-0.54;2.18
1.52;4.46;2.61;-0.44;-2.94;3.05
-4.14;5.23;3.38;-0.44;-6.97;-10.67
-0.11;6.10;-0.65;3.59;-1.31;-18.73
0.65;-2.83;-1.42;7.62;-6.97;-34.09
-0.87;0.44;-11.87;7.62;2.72;-22.76
1.52;-7.62;-9.47;0.44;5.12;-23.52
-4.14;-1.96;-2.29;-5.23;22.76;-23.52
1.52;-2.83;-7.84;-1.20;12.31;-34.09
-2.50;-1.96;-4.68;4.46;3.48;-23.52
0.65;4.46;-9.47;4.46;-15.90;-13.94
-4.14;4.46;-29.62;4.46;-21.45;-30.82
0.65;0.44;0.98;-3.59;-28.75;2.18
-1.74;1.20;-0.65;-0.44;-36.05;14.27
0.65;-0.33;6.64;-1.20;-44.87;23.96
11.98;19.82;4.14;-6.10;-35.17;23.20
-2.50;4.46;1.74;-6.86;-25.48;23.20
-6.53;3.70;1.74;-10.13;-4.57;23.20
0.65;2.07;7.41;-11.65;8.28;53.80
-0.87;6.10;-0.65;-6.86;25.26;15.90
2.29;3.70;4.14;-0.44;29.29;2.18
-4.14;2.07;0.98;-6.10;32.45;0.65
-30.71;2.07;-0.65;-2.83;47.81;-11.43
14.37;-7.62;-0.65;5.99;38.11;-13.07
-0.87;-1.96;-5.44;7.62;30.82;-21.13
3.16;-5.99;-5.44;10.89;7.51;-18.73
2.29;-2.83;1.74;12.41;-2.18;-16.33
2.29;-5.23;-5.44;14.92;-11.00;-19.49
3.16;-18.95;-3.05;22.98;-29.51;-29.19
2.29;-2.83;-1.42;10.89;-32.78;-19.49
-0.87;3.70;-0.65;10.02;-29.51;-6.64
3.16;0.44;0.98;4.46;-15.03;3.81
-1.74;6.10;0.98;4.46;10.78;19.17
-27.55;18.19;1.74;-22.98;22.76;25.59
3.92;7.73;2.61;-5.23;28.42;19.93
0.65;4.46;3.38;-5.23;32.45;28.86
0.65;2.07;0.98;0.44;22.76;25.59
-0.87;27.01;5.01;10.02;17.97;24.83
-14.59;3.70;5.77;-2.07;5.12;26.35
-0.87;6.10;5.01;-4.46;-6.21;15.90
2.29;4.46;20.26;0.44;-17.42;6.21
-4.90;2.83;-0.65;-3.59;-21.45;-9.91
1.52;-4.36;1.74;1.20;-32.02;-23.52
0.65;3.70;-1.42;-0.44;-23.96;-24.39
1.52;-1.20;-0.65;-2.83;-21.45;-49.33
-1.74;-5.99;-3.05;-3.59;-13.39;-26.03
-35.61;-25.37;-5.44;-16.55;-5.34;-26.03
-0.87;-2.83;-3.81;-0.44;1.09;-25.16
-4.14;-8.39;-10.35;2.83;2.72;-34.09
2.29;-10.02;20.26;7.62;6.75;-11.43
3.16;-2.83;-1.42;-0.44;5.12;-6.64
-0.87;-1.20;-5.44;-3.59;36.48;2.18
3.16;-22.11;-0.65;1.96;30.82;15.90
-2.50;3.70;1.74;-1.20;20.36;25.59
-0.87;2.07;7.41;3.59;-16.66;27.22
-1.74;1.20;5.01;-1.20;-3.81;27.99
2.29;-29.40;3.38;-1.20;5.12;29.62
5.55;0.44;-0.65;1.20;5.12;53.03
-5.77;1.20;8.17;1.20;-11.87;30.38
-4.90;6.10;8.17;-5.23;-33.54;6.21
3.16;6.10;1.74;4.46;-41.60;2.18
-0.87;3.70;2.61;0.44;-32.02;-8.28
3.16;6.10;0.11;-1.20;-20.69;-29.19
-0.11;-1.96;-0.65;-0.44;-3.81;-23.52
36.15;24.61;-4.68;2.83;4.25;-24.39
2.29;1.20;-9.47;-1.20;1.09;-22.76
2.29;-1.20;-6.32;1.96;5.88;-23.52
33.76;5.23;-9.47;-1.20;-4.57;-23.52
-0.87;-4.36;-6.32;2.83;0.22;-36.48
1.52;-6.86;-7.84;4.46;0.22;-22.76
3.16;-3.59;-0.65;-1.20;10.78;-17.97
20.04;-31.80;-0.65;7.62;18.73;7.08
-1.74;-5.23;3.38;7.62;19.60;25.59
0.65;-4.36;5.01;0.44;15.57;27.22
-2.50;-1.96;4.14;5.99;21.24;27.99
2.29;4.46;10.67;5.99;26.79;30.38
-10.56;6.86;5.01;5.99;26.79;32.02
-2.50;6.10;5.01;-2.07;5.88;27.99
3.16;2.07;7.41;-9.26;-11.00;36.92
-23.52;6.10;9.80;-11.65;-20.69;17.53
2.29;-1.20;8.17;-6.10;-20.69;3.05
3.16;-5.99;6.64;-9.26;-18.30;-5.88
3.92;-2.83;-0.65;-2.07;5.12;-21.13
21.67;-1.96;-0.65;1.96;23.63;-22.76
0.65;2.07;-4.68;-1.20;19.60;-23.52
-4.90;2.07;-6.32;3.59;5.12;-27.55
-6.53;13.29;-8.71;3.59;-15.03;-23.52
-16.99;-5.99;-9.47;-16.55;-18.30;-23.52
30.49;-18.08;-3.81;11.65;-19.93;-26.79
2.29;-20.47;-4.68;6.86;-18.30;-17.97
-1.74;-2.83;-0.65;2.83;-23.09;-9.04
-4.90;0.44;-2.29;1.20;-10.24;2.18
2.29;-4.36;-0.65;1.96;5.12;16.77
0.65;1.20;0.98;-0.44;12.31;27.22
1.52;-1.20;11.43;-2.83;7.51;16.77
-0.87;-5.99;3.38;1.20;5.12;16.77
-5.77;-18.95;5.01;1.20;-16.66;20.80
-4.90;-7.62;5.01;-12.52;-18.30;20.80
-0.11;6.10;12.20;-9.26;-19.06;27.99
-0.11;1.20;6.64;-3.59;-12.63;9.47
0.65;42.36;5.01;1.20;10.78;2.18
2.29;-1.20;-0.65;-3.59;-1.31;-13.07
-23.52;27.77;0.11;-35.07;26.03;-21.13
-15.46;-1.20;-3.05;3.59;5.88;-23.52
3.16;-5.23;-28.86;1.20;6.75;-23.52
1.52;-3.59;-0.65;1.20;5.12;-25.16
1.52;-6.86;-9.47;6.86;5.12;-22.00
2.29;-1.20;-4.68;9.26;6.75;-13.94
0.65;2.07;-7.84;2.83;6.75;-23.52
1.52;-0.33;-12.74;4.46;9.15;15.90
0.65;-1.20;-0.65;0.44;13.18;-5.01
4.68;5.23;-0.65;-5.23;5.88;6.21
2.29;3.70;-0.65;-10.13;5.12;31.25
0.65;-4.36;2.61;-5.23;4.25;22.32
-2.50;30.27;5.01;-9.26;-15.03;19.93
2.29;4.46;4.14;-1.20;-9.37;53.03
-2.50;5.23;4.14;1.20;5.12;23.20
-1.74;6.10;7.41;-5.23;-6.97;25.59
-4.14;4.46;25.16;-6.10;17.21;23.96
-12.96;2.83;10.67;-2.07;23.63;27.22
-0.11;1.20;3.38;8.39;20.36;7.84
3.16;3.70;-0.65;-1.20;7.51;-1.85
2.29;5.23;0.98;2.83;-6.97;-15.46
3.92;1.20;-0.65;3.59;-11.87;-26.03
5.55;3.70;-0.65;2.83;-19.06;-17.97
3.16;-2.83;-0.65;4.46;-25.48;-16.33
2.29;-2.83;-6.32;7.62;-3.81;-16.33
-24.28;2.07;-7.84;11.65;5.88;-13.07
3.16;-2.83;-1.42;5.23;5.88;-50.09
1.52;-5.23;-0.65;1.20;6.75;-9.04
3.16;-14.05;-0.65;1.20;10.78;-3.38
2.29;4.46;4.14;-0.44;5.12;4.68
0.65;5.23;-23.96;-2.07;-2.18;7.08
0.65;2.07;5.01;3.59;-6.21;15.90
1.52;1.20;7.41;-2.83;-19.93;25.59
2.29;5.23;5.01;-2.83;-23.09;19.93
-2.50;2.83;9.80;-14.16;-30.38;16.77
-10.56;1.20;7.41;-6.10;-23.09;16.77
-4.14;-1.20;5.01;-6.86;-17.42;27.99
0.65;1.20;9.80;2.83;-12.63;11.87
-0.87;4.46;8.17;0.44;-6.21;-7.41
-1.74;4.46;-11.87;5.99;2.72;-21.13
-0.87;0.44;0.98;1.20;5.88;-25.16
-1.74;2.83;-4.68;3.59;10.78;-24.39
-4.14;-4.36;-10.35;-1.20;5.12;-29.19
-4.14;1.20;-6.32;-3.59;25.26;-25.16
4.68;-5.23;11.43;4.46;43.78;-23.52
27.33;-6.86;-6.32;10.89;50.97;-14.70
3.16;-5.23;-5.44;7.62;49.44;-26.03
-0.87;-3.59;-4.68;7.62;6.75;-13.94
3.16;-5.99;-0.65;1.20;-11.87;-6.64
-0.87;1.20;0.98;0.44;-39.20;3.05
1.52;-1.20;-0.65;-3.59;-46.50;14.27
0.65;1.20;1.74;-1.20;-45.63;25.59
-2.50;2.83;1.74;-3.59;-30.38;23.96
-7.41;2.07;3.38;-0.44;-11.87;26.35
1.52;3.70;8.17;-3.59;-2.18;25.59
0.65;0.44;4.14;-3.59;5.88;27.22
2.29;2.07;8.17;-11.65;-5.34;27.99
-7.41;6.10;-0.65;-5.23;17.97;19.17
-8.93;-1.20;1.74;-0.44;19.60;12.74
3.16;3.70;8.17;5.99;13.94;2.18
2.29;0.44;12.20;0.44;9.91;-13.07
2.29;-2.83;-0.65;10.02;5.12;-11.43
2.29;-1.20;-1.42;10.89;5.88;-22.00
3.16;-2.83;-4.68;10.02;19.60;-22.76
-1.74;-5.99;-11.11;2.83;4.25;-17.97
-1.74;10.89;-9.47;-10.13;-6.97;-21.13
-1.74;0.44;-7.08;-4.46;-3.81;-28.42
1.52;3.70;-0.65;-5.23;-6.97;-17.97
-1.74;0.44;-1.42;-3.59;-4.57;-12.31
-4.90;-2.83;-3.05;-5.23;5.12;2.18
-5.77;1.20;29.95;-3.59;5.12;12.74
2.29;1.20;0.11;3.59;7.51;17.53
2.29;-1.96;-0.65;-1.20;9.91;19.17
1.52;-14.92;5.77;-18.95;2.72;22.32
-1.74;1.20;-0.65;1.20;-2.18;23.96
-0.11;5.23;8.17;1.96;-6.97;27.99
0.65;6.10;6.64;-2.07;-5.34;27.22
26.46;2.07;5.01;-2.07;-13.39;16.77
2.29;2.07;7.41;4.46;-17.42;-9.91
4.68;2.07;-0.65;-2.07;-18.30;-10.67
1.52;2.83;0.11;4.46;-15.03;-20.36
-1.74;5.23;-2.29;1.20;-11.00;-23.52
2.29;0.44;-3.81;2.83;-3.81;-15.46
-1.74;2.07;-4.68;11.65;20.36;-16.33
-1.74;-6.86;-6.32;6.86;6.75;-25.16
2.29;-5.23;-4.68;0.44;12.31;-15.46
3.16;-2.83;-5.44;7.62;20.36;-23.52
-2.50;-19.71;-7.08;5.99;30.82;-9.91
0.65;2.07;-2.29;5.99;39.75;2.18
-1.74;0.44;1.74;9.26;25.26;6.21
3.16;3.70;-0.65;-1.20;5.12;6.21
1.52;6.10;5.01;1.20;-7.84;19.17
1.52;-1.20;2.61;-0.44;-20.69;26.35
0.65;6.10;10.67;-2.07;-24.72;25.59
2.29;2.07;-0.65;-2.83;-46.50;16.77
-0.87;0.44;1.74;20.47;-39.20;15.14
0.65;-15.68;8.17;-4.46;-32.78;25.59
0.65;20.58;5.01;-9.26;-11.87;15.90
-1.74;2.07;5.01;-3.59;4.25;3.05
-17.86;7.73;0.98;-14.16;19.60;2.18
0.65;-4.36;-0.65;-1.20;25.26;-21.13
-4.14;-1.96;-0.65;21.34;16.33;-22.76
-1.74;-4.36;3.38;2.83;14.70;-19.49
3.16;2.07;-9.47;5.99;5.12;-18.73
1.52;-2.83;-1.42;2.83;6.75;-23.52
-0.11;-1.20;-3.81;6.86;1.85;-1.85
1.52;-1.96;-7.84;2.83;-4.57;0.65
3.16;-1.20;-4.68;1.96;-10.24;-23.52
0.65;-1.96;4.14;-0.44;-5.34;-21.13
-0.87;1.20;0.98;-0.44;-7.84;-3.38
0.65;6.10;-0.65;-0.44;-11.87;9.47
3.16;-1.96;-1.42;3.59;-13.39;15.90
-1.74;5.23;3.38;-13.29;-11.87;16.77
2.29;1.20;0.98;-2.07;2.72;3.81
0.65;4.46;4.14;-0.44;32.45;30.38
-4.14;-27.01;7.41;13.29;50.97;32.89
0.65;2.07;11.43;-2.07;42.91;35.28
-0.11;6.10;7.41;-5.23;23.63;22.32
20.04;31.04;6.64;3.59;-2.94;11.11
3.16;-5.23;5.01;-0.44;-21.45;0.65
0.65;1.20;-0.65;-0.44;-46.50;-23.52
2.29;-1.20;-14.37;-1.20;-61.75;-48.57
0.65;-1.96;0.11;5.99;-69.80;-10.67
-16.99;-4.36;-8.71;32.56;-48.90;-22.76
3.92;-4.36;-11.11;3.59;-24.72;-19.49
4.68;-4.36;-6.32;5.99;5.12;-23.52
3.16;-2.83;-9.47;11.65;19.60;-35.61
3.16;-14.05;-7.84;6.86;30.82;-20.36
-0.87;3.70;-4.68;-1.20;22.00;-11.43
-5.77;-2.83;-1.42;-0.44;27.66;1.42
3.16;2.83;-0.65;-3.59;26.03;16.77
-2.50;1.20;0.11;-1.20;22.00;-0.22
-4.14;3.70;8.17;-21.34;34.85;27.99
0.65;5.23;-5.44;1.20;34.09;27.99
-5.77;2.83;0.11;-1.20;28.42;27.22
3.92;-2.83;0.98;-1.20;-17.42;23.20
-4.14;-1.20;-21.56;-2.07;-10.24;32.89
0.65;5.23;8.17;-6.86;-23.09;17.53
-4.14;4.46;3.38;-1.20;-24.72;2.18
-0.87;-10.89;-0.65;4.46;-6.97;-9.04
3.16;6.10;1.74;0.44;-0.54;-17.97
3.16;1.20;25.16;-2.07;-3.81;-24.39
3.16;-1.20;-3.05;-0.44;-13.39;-23.52
-21.89;-4.36;-8.71;9.26;-31.15;-25.16
23.30;0.44;-7.84;3.59;-34.41;-28.42
5.55;-1.20;-5.44;-2.07;-35.17;-23.52
3.16;31.04;-6.32;4.46;-26.35;-37.24
3.16;-4.36;-7.84;-2.83;-12.63;-24.39
3.16;-1.20;11.43;0.44;3.48;-10.67
3.16;-1.20;-0.65;3.59;7.51;2.18
0.65;-1.20;-3.05;-2.83;8.28;19.17
-4.14;6.86;0.98;-3.59;17.21;26.35
-1.74;2.07;3.38;-0.44;17.97;27.22
0.65;3.70;4.14;2.83;20.36;27.99
-4.90;2.83;6.64;1.20;33.32;28.86
-2.50;3.70;6.64;-10.89;19.60;27.99
-10.56;-1.96;3.38;1.20;13.18;20.80
-4.14;3.70;10.67;-9.26;7.51;18.30
3.16;5.23;6.64;3.59;17.21;2.18
0.65;31.04;5.01;6.86;20.36;-2.61
-2.50;-6.86;0.98;37.46;19.60;-14.70
-1.74;0.44;-0.65;10.02;6.75;-21.13
3.16;-3.59;-30.49;9.26;4.25;-21.13
0.65;-12.41;-1.42;1.20;-3.81;-21.13
1.52;30.27;-5.44;2.83;-15.03;-22.00
-5.77;-0.33;-10.35;-1.20;-32.78;-23.52
-0.87;-1.20;-8.71;-1.20;-36.05;-30.82
1.52;-5.23;-7.84;-1.20;-23.96;-21.13
3.16;0.44;-9.47;-1.20;-15.03;-11.43
-1.74;4.46;0.98;1.20;2.72;2.18
-0.11;4.46;-3.81;-1.20;15.57;11.11
2.29;7.73;-0.65;-2.83;12.31;20.80
0.65;0.44;8.17;-1.20;5.88;22.32
1.52;0.44;25.16;0.44;2.72;20.80
-2.50;-1.20;9.04;1.96;-2.94;20.80
13.61;-1.20;5.01;5.23;9.15;27.99
-0.87;3.70;7.41;-2.07;0.22;28.86
0.65;3.70;11.43;-6.10;5.12;6.21
-7.41;3.70;8.17;-8.49;5.12;-3.38
3.16;1.20;0.98;-3.59;9.15;-6.64
3.16;5.23;-0.65;-2.83;5.12;-15.46
-0.87;1.20;-2.29;-5.23;5.12;-22.76
-4.14;1.20;-3.05;4.46;9.15;-23.52
-0.87;-7.62;-2.29;-2.83;7.51;-20.36
3.16;-5.99;-7.84;-14.16;9.15;-15.46
3.16;-0.33;-4.68;10.89;23.63;10.24
3.16;-2.83;-3.81;11.65;19.60;-26.79
2.29;-2.83;-4.68;10.02;13.18;-23.52
17.64;-6.86;-0.65;-27.77;-2.94;-9.91
11.98;2.83;-3.05;2.83;-15.03;2.18
-0.87;-1.20;-0.65;12.41;-25.48;16.77
-0.87;1.20;3.38;-0.44;-19.93;17.53
-0.11;1.20;1.74;-2.83;-35.17;31.25
-1.74;1.20;4.14;-6.10;-21.45;23.96
-0.87;-19.71;4.14;-2.07;-10.24;27.22
-7.41;31.80;0.98;-6.86;5.12;25.59
-4.14;3.70;5.01;-2.83;17.97;28.86
0.65;2.07;8.17;-5.23;17.97;27.99
2.29;1.20;5.01;-21.34;19.60;6.21
-10.56;-4.36;5.01;0.44;13.18;-11.43
-0.11;0.44;-0.65;3.59;17.97;-22.76
-6.53;-8.39;-1.42;1.96;5.12;-21.13
-0.11;-3.59;-0.65;6.86;1.09;-19.49
-1.74;-1.20;-0.65;4.46;-5.34;-22.00
3.16;-4.36;-6.32;2.83;-9.37;-23.52
3.16;1.20;-2.29;1.20;-6.97;-23.52
3.16;0.44;-6.32;7.62;-13.39;-37.24
3.16;-2.83;-4.68;7.62;-16.66;-26.03
-0.87;-1.20;-1.42;6.86;-20.69;-10.67
3.16;2.07;-0.65;2.83;-6.97;-1.85
0.65;6.86;0.11;3.59;13.18;13.50
-0.87;6.10;5.01;-2.07;17.21;20.80
-4.14;-1.20;-0.65;-2.07;34.85;20.80
-4.90;2.83;7.41;-9.26;33.32;27.22
-4.14;2.07;-0.65;-3.59;20.36;12.74
-2.50;6.10;-0.65;-9.26;6.75;28.86
-0.87;1.20;3.38;-3.59;-6.21;25.59
2.29;5.23;7.41;-1.20;-25.48;19.93
-0.87;6.10;-1.42;-4.46;-35.17;2.18
3.16;1.20;-1.42;-0.44;-44.87;1.42
3.16;-1.20;-0.65;1.20;-34.41;-22.00
-3.38;1.20;-4.68;1.20;-19.06;-24.39
8.71;-6.86;-4.68;4.46;-3.81;-26.03
-6.53;-5.23;-6.32;-14.16;15.57;-23.52
1.52;-17.32;-8.71;-0.44;16.33;-23.52
1.52;-5.23;-9.47;5.99;15.57;-27.55
2.29;-2.83;-17.53;1.20;9.91;-38.01
1.52;-2.83;-3.05;4.46;5.12;-31.58
3.16;-3.59;-2.29;1.20;5.88;2.18
20.80;0.44;0.11;0.44;9.91;-0.22
-1.74;-1.96;-0.65;0.44;16.33;14.27
-7.41;2.07;3.38;1.20;14.70;20.80
-6.53;2.07;3.38;3.59;13.94;28.86
-3.38;4.46;5.01;4.46;-8.60;26.35
3.16;2.07;7.41;2.83;-27.99;27.99
7.19;2.83;9.80;-1.20;-37.57;36.92
0.65;4.46;7.41;-6.10;-27.99;36.05
4.68;5.23;9.80;22.11;-11.87;25.59
0.65;24.61;7.41;-6.10;-2.18;3.81
3.16;4.46;1.74;0.44;5.12;-5.88
-4.14;-22.98;-3.05;-5.23;26.03;-22.00
-20.26;-2.83;-0.65;-2.83;36.48;-22.76
3.16;2.07;-3.05;1.96;30.82;-22.00
-2.50;-2.83;-6.32;11.65;13.18;-19.49
3.16;-1.96;-4.68;38.22;5.12;-23.52
1.52;-5.23;-4.68;11.65;-2.18;-36.48
-10.56;-1.20;-8.71;3.59;-11.87;-30.82
-2.50;-7.62;12.20;3.59;-31.15;-22.00
3.16;-5.99;-4.68;-2.07;-33.54;-9.91
2.29;-5.23;-0.65;-10.89;-15.03;2.18
13.61;3.70;0.11;-5.23;-5.34;10.24
-5.77;3.70;8.17;-9.26;5.12;-17.97
-4.14;-1.20;3.38;-8.49;7.51;0.65
-4.14;3.70;0.98;-5.23;10.78;19.17
-4.90;2.83;6.64;14.05;13.18;19.93
-0.87;6.10;8.17;-1.20;13.18;22.32
-0.87;5.23;1.74;-2.07;18.73;28.86
-2.50;5.23;8.17;1.20;22.76;26.35
-1.74;6.10;3.38;-0.44;17.97;-3.38
0.65;1.20;-0.65;2.83;9.91;-2.61
26.46;2.83;-2.29;-3.59;5.12;-14.70
-1.74;6.10;-0.65;2.83;-8.60;-11.43
1.52;-1.96;-4.68;1.20;-15.90;-17.97
-0.87;-10.89;-9.47;29.40;-23.09;-16.33
-0.87;-0.33;-26.46;2.83;-23.09;-22.76
3.16;-1.20;-7.84;5.99;-11.00;-20.36
-22.65;-6.86;-3.05;2.83;-0.54;-29.19
-0.11;-19.71;-7.84;-2.83;7.51;-21.13
-10.56;-5.23;-8.71;0.44;5.88;-11.43
3.16;-5.23;-5.44;2.83;-10.24;-3.38
-0.87;-2.83;-3.05;1.20;5.12;10.24
-21.02;-2.83;4.14;-1.20;-2.18;26.35
3.16;6.10;5.01;-6.10;-6.97;27.22
0.65;4.46;4.14;-4.46;-8.60;24.83
-2.50;5.23;9.04;-6.10;8.28;22.32
-0.87;6.10;5.01;-2.83;1.09;6.21
14.37;2.83;7.41;-3.59;2.72;29.62
-10.56;-1.20;7.41;-6.10;3.48;17.53
-0.87;4.46;5.01;1.20;5.12;2.18
-2.50;6.10;4.14;-3.59;1.85;-8.28
1.52;7.73;2.61;-1.20;39.75;-19.49
2.29;-2.83;-0.65;4.46;9.91;-18.73
15.25;-5.99;-8.71;7.62;7.51;-18.73
3.16;-2.83;-0.65;5.99;15.57;-22.76
-1.74;-2.83;-6.32;11.65;-2.18;-23.52
-0.87;-19.71;-4.68;7.62;-6.21;-15.46
1.52;24.61;-6.32;1.96;-11.87;-26.03
2.29;0.44;-6.32;-1.20;-21.45;-23.52
28.10;-10.89;-1.42;0.44;-20.69;-7.41
2.29;2.07;-3.05;0.44;-19.06;3.05
-0.11;2.07;-0.65;1.20;-12.63;-6.64
-12.96;5.23;3.38;-3.59;-9.37;19.93
1.52;-1.20;3.38;9.26;-6.97;21.56
3.16;5.23;3.38;-4.46;-1.31;27.99
-4.14;3.70;9.80;-0.44;12.31;16.77
-0.87;-14.05;9.80;-14.16;19.60;27.99
-0.11;6.10;-1.42;-6.10;22.00;7.08
-0.87;3.70;6.64;-2.07;26.03;27.99
-19.49;2.83;5.01;-9.26;18.73;4.68
-0.11;1.20;4.14;-14.16;18.73;-9.04
3.16;-2.83;1.74;-14.92;5.12;-23.52
2.29;-1.96;-3.05;7.62;9.15;-27.55
-0.87;-1.96;8.17;0.44;2.72;-28.42
0.65;-5.23;-7.84;6.86;-2.94;2.18
-1.74;-3.59;-9.47;11.65;-11.87;-22.00
-12.20;-5.23;-13.50;4.46;-21.45;-39.64
1.52;-5.23;-7.84;10.02;-32.02;-36.48
-1.74;-2.83;-5.44;8.39;-34.41;-26.79
0.65;0.44;11.43;4.46;-30.38;-18.73
-2.50;6.86;-0.65;0.44;-27.12;-10.67
-0.11;-2.83;2.61;-2.07;-19.06;9.47
-1.74;6.10;6.64;-6.10;-12.63;19.17
-4.14;0.44;17.86;-1.20;-6.97;-6.64
1.52;-1.20;5.01;-3.59;4.25;22.32
-8.17;1.20;1.74;-6.86;13.94;27.22
-22.65;5.23;8.17;-2.83;30.82;40.08
5.55;-5.99;4.14;-1.20;30.82;33.65
15.25;3.70;8.17;-2.83;46.17;23.20
-7.41;5.23;4.14;1.20;50.97;19.93
20.04;1.20;3.38;-1.20;17.21;3.81
-0.11;1.20;1.74;2.83;-2.18;-5.01
-3.38;10.13;-3.05;1.20;-9.37;-15.46
0.65;3.70;-0.65;3.59;-10.24;-22.00
2.29;-6.86;-2.29;3.59;-15.03;-22.76
-0.87;-5.99;-7.84;27.01;-33.54;-14.70
1.52;-6.86;-4.68;17.32;-48.90;-30.82
-0.87;-3.59;-31.25;1.20;-52.16;-40.51
-0.11;-5.99;-4.68;-5.23;-46.50;-31.58
3.92;-1.20;-13.50;1.20;-32.78;-10.67
28.86;-5.23;-0.65;22.98;-6.21;0.65
-0.11;-4.36;-0.65;-8.49;7.51;13.50
3.16;6.10;0.11;-2.83;20.36;20.80
-2.50;-1.20;-0.65;-2.07;30.06;23.20
-5.77;1.20;11.43;-0.44;22.76;41.71
-0.87;2.83;6.64;-1.20;26.79;23.96
-1.74;3.70;4.14;-26.24;25.26;27.99
-4.14;6.10;13.07;-11.65;23.63;36.05
2.29;3.70;-1.42;2.83;31.69;40.08
-1.74;0.44;5.01;10.89;27.66;11.87
40.95;6.10;8.17;1.96;20.36;-1.85
3.16;2.83;0.11;4.46;7.51;-13.07
3.16;-18.95;0.11;-0.44;1.85;-23.52
3.16;-1.20;-3.81;-1.20;-6.97;-19.49
3.16;0.44;-8.71;5.99;-13.39;-17.97
5.55;-14.05;-9.47;20.47;-3.81;-13.07
2.29;-5.99;-10.35;-1.20;-2.94;-22.76
4.68;-2.83;12.20;2.83;-4.57;-38.01
0.65;-1.96;-28.86;-1.20;-3.81;-19.49
2.29;-5.23;-0.65;1.20;2.72;-12.31
0.65;-1.20;2.61;2.83;-2.18;19.17
0.65;-3.59;4.14;5.99;-9.37;9.47
-0.87;-5.99;12.20;1.20;-9.37;12.74
1.52;-1.96;11.43;8.39;-10.24;18.30
-0.11;3.70;1.74;-0.44;-10.24;19.93
-33.98;-2.83;8.17;-35.83;-7.84;15.90
1.52;18.95;5.01;-3.59;10.78;22.32
0.65;-4.36;5.01;-2.07;-3.81;35.28
2.29;5.23;5.01;-6.86;-2.18;16.77
-11.43;2.83;8.17;0.44;1.09;7.08
0.65;0.44;-0.65;1.20;2.72;-23.52
-5.77;2.07;0.98;3.59;-5.34;-19.49
0.65;4.46;-0.65;-0.44;5.12;-22.00
0.65;3.70;-6.32;1.96;10.78;-22.76
3.16;1.20;1.74;9.26;16.33;-19.49
3.16;-2.83;-9.47;5.23;9.91;-19.49
0.65;0.44;-3.05;4.46;4.25;-22.76
4.68;-0.33;-6.32;11.65;2.72;-31.58
1.52;-6.86;21.13;10.89;-5.34;-22.00
3.92;-2.83;-1.42;4.46;-9.37;-10.67
-9.80;-2.83;-0.65;-0.44;-11.87;11.11
-4.14;2.07;1.74;-2.83;-19.06;10.24
1.52;-1.20;9.80;-6.86;-8.60;14.27
-0.11;-4.36;1.74;-5.23;3.48;16.77
-0.87;3.70;3.38;-3.59;5.88;27.99
2.29;2.07;5.01;-27.01;9.91;27.22
0.65;5.23;1.74;-6.10;26.79;27.99
3.16;3.70;29.19;-1.20;30.82;7.84
3.16;5.23;9.80;1.20;21.24;23.96
3.16;2.07;5.01;6.86;16.33;9.47
2.29;5.23;0.98;4.46;5.12;0.65
0.65;-1.96;1.74;2.83;-15.03;-16.33
3.16;5.23;-18.40;-6.86;-33.54;-23.52
-0.11;-1.96;-13.50;-3.59;-46.50;-28.42
-2.50;27.01;-2.29;-6.10;-50.53;-28.42
0.65;4.46;-12.74;-2.83;-44.10;-38.01
0.65;-2.83;8.17;-0.44;-15.90;-22.76
-4.14;-4.36;-7.84;4.46;15.57;-38.01
18.40;-3.59;-7.08;12.41;25.26;-28.42
2.29;-1.20;-6.32;5.99;22.76;4.68
0.65;31.80;-0.65;-1.20;13.18;-9.04
24.83;4.46;-0.65;-6.10;1.09;9.47
-2.50;1.20;6.64;-0.44;-3.81;17.53
3.16;31.80;1.74;7.62;-19.06;19.17
3.16;1.20;2.61;-6.10;-12.63;27.22
-5.77;-7.62;7.41;17.32;-13.39;26.35
1.52;4.46;4.14;0.44;-2.94;30.38
0.65;3.70;6.64;-3.59;12.31;34.41
-0.11;2.83;8.17;-2.07;13.94;23.96
3.16;0.44;2.61;-5.23;18.73;32.89
2.29;6.10;-0.65;-4.46;17.21;-2.61
3.16;1.20;-11.87;7.62;30.82;-17.97
3.16;-1.96;-2.29;10.02;42.91;-18.73
1.52;2.07;-3.05;10.89;30.82;-15.46
3.16;0.44;-0.65;5.99;4.25;-17.97
1.52;-2.83;-3.81;3.59;-2.18;-10.67
1.52;-1.20;13.07;8.39;4.25;-17.97
2.29;-1.20;-15.14;6.86;-0.54;-42.04
3.92;-1.96;-9.47;3.59;-6.21;-17.97
3.16;-1.20;-3.05;0.44;-8.60;11.87
3.16;4.46;-0.65;-2.83;-15.03;6.21
2.29;3.70;-0.65;-4.46;-19.93;12.74
3.16;-2.83;4.14;0.44;-26.35;26.35
0.65;10.13;8.17;-2.83;-27.99;15.14
2.29;3.70;7.41;-2.07;-16.66;20.80
-1.74;5.23;1.74;-2.83;-5.34;11.11
0.65;2.07;7.41;-6.10;7.51;22.32
-1.74;-4.36;9.80;-9.26;17.97;28.86
-5.77;2.07;6.64;-13.29;15.57;13.50
-4.90;2.07;4.14;-1.20;5.12;2.18
-2.50;2.83;-6.32;-1.20;5.12;-10.67
-0.87;34.30;-0.65;2.83;-5.34;-22.76
1.52;1.20;-2.29;10.02;-15.90;-26.03
-1.74;0.44;-5.44;9.26;-2.94;0.65
7.95;-1.20;-1.42;1.20;2.72;-16.33
-4.14;2.07;-10.35;2.83;6.75;-17.97
3.16;-1.20;-7.84;7.62;5.88;-13.07
3.92;-3.59;-19.17;11.65;2.72;-23.52
7.95;-5.23;7.41;10.89;4.25;-18.73
-6.53;-14.92;-3.05;0.44;1.09;-8.28
-4.90;-6.86;-9.47;-6.10;6.75;2.18
2.29;0.44;-0.65;-9.26;5.12;8.71
1.52;-2.83;3.38;-2.83;-5.34;25.59
3.16;0.44;3.38;-4.46;-13.39;23.20
0.65;4.46;9.04;10.89;-15.03;27.99
-1.74;0.44;9.80;-0.44;-8.60;27.99
11.98;28.64;11.43;-0.44;4.25;27.99
-6.53;-1.20;7.41;-2.07;3.48;32.02
3.16;5.23;11.43;-2.07;7.51;19.93
0.65;5.23;-1.42;3.59;16.33;7.84
-0.87;-1.96;1.74;-14.16;15.57;-8.28
0.65;1.20;0.11;9.26;13.18;-11.43
3.16;2.07;0.11;1.96;12.31;-23.52
1.52;-11.65;-6.32;4.46;6.75;-26.03
-5.77;-1.96;-5.44;22.98;-5.34;-25.16
2.29;-3.59;8.17;4.46;-11.87;-23.52
-9.80;-4.36;-8.71;11.65;17.21;-23.52
2.29;-2.83;-11.87;43.12;5.12;-34.09
3.16;-5.99;-5.44;10.02;13.94;-18.73
0.65;-2.83;-0.65;7.62;9.91;-8.28
3.16;4.46;0.11;4.46;5.12;6.21
-0.87;-29.40;-0.65;-3.59;-13.39;17.53
0.65;4.46;5.01;-5.23;-27.99;20.80
-13.83;2.07;1.74;-5.23;-40.84;23.20
-34.74;-1.20;1.74;-11.65;-42.47;14.27
0.65;2.07;14.70;-14.16;-44.10;40.95
-0.87;2.07;9.80;-43.89;-27.99;20.80
-4.14;7.73;-15.14;-11.65;-20.69;26.35
0.65;-5.23;6.64;-14.16;-11.87;12.74
-12.96;3.70;25.16;-10.13;0.22;-7.41
3.16;0.44;1.74;0.44;-9.37;-10.67
0.65;2.07;0.11;3.59;20.36;-15.46
-0.87;-1.96;-4.68;4.46;26.03;-18.73
3.16;-1.96;-0.65;10.02;30.06;-26.79
3.16;2.07;-15.90;11.65;30.82;-23.52
-2.50;-2.83;-7.84;14.05;41.38;-8.28
3.16;5.23;-5.44;11.65;54.23;-9.04
2.29;-2.83;-26.46;11.65;36.48;-22.76
1.52;-4.36;-7.84;2.83;3.48;-11.43
-1.74;-1.20;-3.81;7.62;-3.81;-0.98
2.29;-28.53;-0.65;-1.20;-15.90;2.18
-11.43;-7.62;0.11;-2.83;-31.15;12.74
-1.74;1.20;-20.80;-2.83;-46.50;14.27
-1.74;2.07;23.52;-10.13;-49.66;-21.13
2.29;2.07;3.38;-8.49;-42.47;14.27
-4.90;0.44;5.01;-8.49;-20.69;16.77
-2.50;6.10;7.41;11.65;-6.97;15.14
-8.17;6.10;9.04;-11.65;1.85;22.32
-7.41;2.83;9.04;-2.07;7.51;23.96
-4.14;6.10;7.41;-34.30;10.78;2.18
-4.14;5.23;5.01;-2.07;7.51;-3.38
-1.74;3.70;0.98;3.59;9.15;-22.76
0.65;0.44;-0.65;5.23;46.17;-19.49
2.29;-1.20;-9.47;5.99;17.21;-23.52
2.29;-2.83;-3.81;6.86;17.21;-16.33
1.52;-6.86;-8.71;13.29;6.75;-17.97
3.92;-3.59;-3.81;7.62;-2.18;-15.46
2.29;0.44;-9.47;9.26;-5.34;-28.42
0.65;-2.83;-0.65;-10.13;-6.97;-13.94
3.92;1.20;-2.29;1.96;9.15;-6.64
2.29;-30.17;-0.65;0.44;31.69;7.84
2.29;-4.36;-0.65;1.20;30.82;17.53
-4.90;0.44;-0.65;-6.10;8.28;20.80
-4.90;-1.20;3.38;-2.07;-21.45;27.99
-6.53;31.80;5.01;-3.59;-46.50;27.99
-0.87;0.44;7.41;-10.13;-41.60;27.99
19.28;-24.50;1.74;-1.20;-26.35;23.96
20.04;6.86;7.41;-2.07;-8.60;32.02
-7.41;3.70;14.70;-12.52;2.72;28.86
1.52;-1.20;9.80;-6.10;13.18;7.84
3.16;-4.36;0.11;-6.10;13.94;-5.88
1.52;2.07;-0.65;2.83;13.18;-19.49
-1.74;-1.20;-2.29;1.20;10.78;-24.39
7.95;-4.36;-0.65;-2.07;9.91;-29.19
-2.50;0.44;-15.14;2.83;10.78;-5.01
-5.77;-2.83;-6.32;-1.20;9.15;-27.55
1.52;-5.23;-8.71;11.65;7.51;-22.00
-22.65;-5.23;-11.11;11.65;12.31;-26.79
-0.87;-1.20;-4.68;6.86;30.82;-23.52
4.68;1.20;-2.29;-1.20;46.17;-0.22
3.16;0.44;0.98;2.83;2.72;3.81
-11.43;-4.36;-0.65;-26.24;-15.90;6.21
3.16;1.20;-0.65;-2.07;-23.09;17.53
1.52;-1.20;3.38;-1.20;-25.48;24.83
1.52;-1.20;7.41;-2.07;-32.78;23.96
-2.50;-1.96;10.67;-3.59;-47.26;12.74
-0.87;2.07;5.01;-14.16;-42.47;23.20
-0.87;-1.20;8.17;-6.86;-27.99;32.02
0.65;2.07;9.80;6.86;7.51;20.80
-4.90;-1.96;-0.65;-3.59;13.18;2.18
-4.90;3.70;-0.65;0.44;20.36;-5.01
0.65;-1.96;-3.81;2.83;25.26;-15.46
1.52;-5.23;-27.99;2.83;22.76;-22.76
-0.87;-1.96;-3.81;7.62;22.76;-19.49
-0.87;-1.20;-5.44;22.98;36.48;-21.13
-1.74;-2.83;-9.47;10.89;35.72;17.53
3.16;2.07;-6.32;-22.98;26.03;-12.31
3.16;-5.99;-0.65;4.46;9.91;-24.39
3.16;1.20;-5.44;-2.07;3.48;-15.46
3.16;-0.33;-16.77;-2.07;-10.24;-6.64
3.92;14.92;0.11;-5.23;-15.03;2.18
1.52;-4.36;0.11;-2.07;-10.24;13.50
-0.87;-2.83;1.74;-2.07;-2.94;19.17
7.95;1.20;5.01;-8.49;-15.90;19.93
-5.77;4.46;10.67;-2.07;-19.06;16.77
-1.74;0.44;-3.05;-6.86;-23.09;30.38
-3.38;6.10;1.74;-6.10;-28.75;17.53
-4.14;-28.53;3.38;-2.07;-33.54;27.99
3.16;-2.83;6.64;5.23;-20.69;15.90
1.52;7.73;8.17;2.83;-19.06;3.05
-4.90;-2.83;-0.65;3.59;-5.34;-2.61
-8.17;-3.59;-0.65;2.83;16.33;-15.46
-0.11;-23.74;-0.65;2.83;30.06;-18.73
-2.50;-5.23;-3.05;5.99;26.03;-21.13
3.16;18.19;-5.44;0.44;5.88;-15.46
3.16;2.07;-9.47;1.20;7.51;-15.46
3.16;-1.20;-7.84;-1.20;7.51;-23.52
3.16;-5.99;-5.44;4.46;-6.21;-34.85
3.16;22.98;-4.68;7.62;-8.60;-26.03
-4.90;-3.59;-0.65;-9.26;-8.60;-19.49
-0.87;2.07;-5.44;-1.20;-15.03;-6.64
-8.93;2.07;-1.42;-2.07;-4.57;7.84
-6.53;1.20;0.98;11.65;-2.18;17.53
-0.87;3.70;-9.47;-2.07;-2.18;15.90
-1.74;-1.20;8.17;-8.49;2.72;26.35
1.52;-1.96;22.76;-5.23;-7.84;31.25
-0.87;-2.83;9.80;-2.83;-9.37;29.62
-1.74;1.20;9.80;-2.07;1.09;39.31
-4.90;4.46;8.17;-1.20;5.88;20.80
-1.74;2.07;8.17;4.46;13.18;2.18
-4.90;4.46;4.14;1.20;13.94;-1.85
-0.87;2.07;1.74;3.59;13.18;-12.31
18.40;-8.39;-0.65;8.39;17.97;-22.00
7.19;1.20;-0.65;16.44;19.60;-13.07
2.29;-1.96;-6.32;7.62;9.15;10.24
3.16;-4.36;-7.84;14.05;16.33;-19.49
3.16;-1.20;-11.11;11.65;5.12;-18.73
3.16;-17.32;-2.29;7.62;4.25;-23.52
18.40;-4.36;-1.42;-4.46;3.48;-17.97
1.52;-5.23;-0.65;4.46;5.12;3.05
-1.74;4.46;-6.32;-0.44;5.12;10.24
-4.14;-6.86;0.11;-1.20;-9.37;14.27
1.52;3.70;8.17;10.89;-7.84;23.96
-7.41;-1.96;2.61;-2.83;-13.39;19.17
-0.11;6.10;-8.71;2.83;-11.87;23.96
1.52;2.07;5.01;-4.46;-8.60;26.35
2.29;-7.62;5.01;-2.07;19.60;23.96
-12.20;6.10;3.38;-3.59;17.97;23.96
-4.14;-30.17;3.38;-0.44;19.60;15.90
-0.11;6.10;7.41;-4.46;8.28;17.53
3.16;1.20;1.74;-3.59;-7.84;-4.25
1.52;0.44;-18.40;-0.44;-16.66;-21.13
-0.87;-2.83;-3.05;-14.16;-19.93;-23.52
-4.90;-6.86;-5.44;14.05;-13.39;-22.76
-0.11;-4.36;-5.44;-2.07;-11.87;-30.82
0.65;-2.83;-5.44;3.59;5.12;-19.49
-0.87;-2.83;-9.47;9.26;16.33;-24.39
-2.50;6.10;-4.68;22.98;6.75;-32.45
3.92;-1.20;-7.84;18.95;-12.63;-24.39
3.16;3.70;-31.25;-0.44;-37.57;-10.67
3.16;-2.83;-1.42;-3.59;-15.03;3.81
-4.90;-3.59;0.11;-5.23;-27.99;16.77
-0.87;5.23;0.11;-10.13;-6.97;18.30
10.35;-8.39;1.74;-16.55;22.76;21.56
-4.90;1.20;2.61;11.65;39.75;27.99
2.29;3.70;5.01;-0.44;39.75;55.43
-4.14;3.70;10.67;-4.46;30.82;29.62
-13.83;3.70;9.04;-1.20;13.94;32.02
-4.14;2.07;8.17;0.44;-8.60;14.27
1.52;6.10;1.74;-1.20;-28.75;2.18
-0.87;-1.20;1.74;-14.92;-31.15;-5.01
-0.87;4.46;3.38;3.59;-22.32;-19.49
11.98;1.20;-1.42;-2.07;-9.37;-23.52
1.52;-6.86;-2.29;3.59;-5.34;-23.52
0.65;-27.77;-1.42;4.46;5.12;-21.13
3.16;-1.20;-6.32;-9.26;4.25;-23.52
1.52;-2.83;-9.47;-11.65;4.25;-23.52
3.16;1.20;-7.84;5.99;-0.54;-58.15
-0.11;-6.86;-7.84;0.44;1.09;-22.76
2.29;-2.83;-1.42;6.86;0.22;-9.04
0.65;1.20;-0.65;-2.07;1.09;-14.70
3.16;-11.65;-0.65;19.71;5.12;19.17
-2.50;-16.44;2.61;-24.61;9.91;20.80
2.29;-4.36;2.61;2.83;6.75;19.93
2.29;2.07;19.49;0.44;9.15;23.20
0.65;4.46;8.17;7.62;13.18;26.35
-0.87;2.07;1.74;6.86;6.75;27.22
-0.87;5.23;13.07;3.59;34.85;40.08
1.52;-21.34;13.07;-22.22;57.50;27.99
-1.74;5.23;9.80;1.20;41.38;3.05
-1.74;0.44;3.38;-0.44;17.97;-0.98
-0.87;-2.83;0.11;-0.44;3.48;-9.91
3.92;1.20;8.17;6.86;-11.87;-17.97
3.16;-1.96;-0.65;7.62;-33.54;-17.97
1.52;-5.23;3.38;9.26;-56.95;-1.85
4.68;-4.36;-9.47;5.99;-61.75;-23.52
-1.74;4.46;-3.81;10.02;-33.54;-23.52
3.92;-1.20;-6.32;8.39;-8.60;-38.88
12.74;-3.59;-6.32;-1.20;12.31;-26.03
-2.50;1.20;-4.68;-6.10;22.76;-16.33
-4.14;-1.20;-0.65;0.44;13.18;-9.04
-0.87;2.07;2.61;-8.49;5.12;2.18
-1.74;-5.99;2.61;-6.10;-6.21;7.84
-1.74;-2.83;1.74;-3.59;-19.06;12.74
-4.14;3.70;3.38;-6.86;-21.45;18.30
-1.74;5.23;4.14;-5.23;-28.75;23.96
-1.74;-5.23;4.14;-1.20;-11.87;27.22
-5.77;-1.20;8.17;-6.10;-9.37;30.38
-8.17;1.20;10.67;-10.13;-8.60;-5.01
-4.90;2.07;7.41;-3.59;-2.18;0.65
0.65;2.83;-11.87;-6.86;-0.54;-1.85
0.65;1.20;0.11;-2.83;1.85;-15.46
1.52;2.07;-11.87;-0.44;10.78;-18.73
2.29;0.44;-11.11;-0.44;16.33;-21.13
3.16;-5.99;-6.32;-1.20;17.21;-23.52
3.16;-1.96;-3.81;1.96;13.94;-21.13
-1.74;-1.20;-4.68;11.65;6.75;-5.88
3.16;9.26;-2.29;3.59;4.25;-26.03
-0.87;4.46;-3.05;5.23;1.09;-15.46
2.29;-6.86;-5.44;4.46;4.25;-5.01
3.16;-6.86;-0.65;2.83;16.33;2.18
-1.74;5.23;12.20;0.44;38.11;13.50
-2.50;-2.83;0.11;0.44;36.48;27.22
0.65;2.07;1.74;-2.83;30.06;29.62
3.16;6.10;4.14;-22.22;6.75;36.05
1.52;-2.83;3.38;0.44;-6.97;27.99
-0.11;1.20;0.98;-2.07;-22.32;15.90
0.65;4.46;8.17;11.65;-33.54;27.99
28.86;39.10;6.64;23.74;-46.50;8.71
-7.41;31.04;7.41;-1.20;-49.66;2.18
7.95;-22.11;-0.65;-1.20;-33.54;-11.43
3.16;1.20;-1.42;-0.44;-20.69;-26.03
3.16;-1.96;-0.65;-0.44;-6.97;-34.85
2.29;-2.83;-4.68;-5.23;4.25;-24.39
0.65;2.07;-3.81;1.20;5.12;-29.19
-0.87;-4.36;-3.05;3.59;5.88;-25.16
3.16;3.70;-6.32;32.56;8.28;-23.52
1.52;27.01;-3.81;-2.07;13.18;-34.09
-0.87;-2.83;-4.68;1.96;18.73;4.68
0.65;1.20;-0.65;1.20;19.60;-7.41
3.16;5.23;0.98;-3.59;15.57;6.21
-4.90;-4.36;0.98;0.44;5.12;19.17
3.16;-1.96;0.11;0.44;9.15;25.59
3.92;-1.96;2.61;1.96;5.12;27.99
0.65;-1.20;1.74;-5.23;2.72;27.99
-2.50;5.23;5.01;-3.59;0.22;28.86
-0.11;3.70;3.38;-2.07;4.25;40.95
0.65;3.70;9.80;0.44;16.33;40.08
3.16;5.23;5.01;2.83;17.97;7.84
28.10;-18.95;5.01;1.20;25.26;4.68
-10.56;1.20;0.98;0.44;-2.18;-12.31
1.52;-5.23;-0.65;-5.23;-24.72;-23.52
-2.50;2.83;-2.29;1.20;-29.51;-23.52
3.16;-5.23;-7.84;2.83;1.09;-30.82
3.16;0.44;-4.68;4.46;4.25;-23.52
1.52;-2.83;-4.68;8.39;5.88;-22.76
2.29;-3.59;-29.62;8.39;-2.94;-23.52
0.65;-1.96;-6.32;7.62;-23.96;-30.82
-0.87;1.20;-12.74;1.96;-22.32;-38.01
-1.74;-1.96;-4.68;-0.44;-20.69;-11.43
-0.87;23.74;-0.65;-2.83;-2.18;3.81
-0.11;-0.33;1.74;0.44;20.36;18.30
2.29;-3.59;3.38;-2.07;30.82;27.99
-4.14;1.20;1.74;3.59;17.97;23.96
-4.14;1.20;0.11;3.59;5.12;24.83
-8.17;3.70;3.38;-5.23;-0.54;19.17
-0.87;3.70;-5.44;-2.07;-19.93;16.77
-1.74;5.23;-0.65;-6.10;-33.54;19.17
-4.14;2.07;7.41;-13.29;-35.17;12.74
-5.77;2.83;3.38;-5.23;-24.72;2.18
-0.11;3.70;0.11;-5.23;-7.84;-15.46
-1.74;-1.96;-0.65;6.86;-18.30;-22.00
3.92;4.46;-0.65;11.65;17.21;-17.97
-1.74;-1.96;-11.11;13.29;12.31;-18.73
2.29;-8.39;-3.81;3.59;9.91;-13.07
30.49;-1.20;-3.05;0.44;9.15;-10.67
-34.74;0.44;-1.42;0.44;9.15;-13.94
-0.11;-6.86;-11.87;2.83;6.75;2.18
3.92;-9.26;-2.29;-0.44;13.18;-19.49
-1.74;-6.86;-1.42;-2.83;13.94;-6.64
0.65;-19.71;-0.65;11.65;22.00;7.08
-0.87;2.07;-0.65;1.20;22.00;-1.85
1.52;3.70;3.38;25.37;17.21;26.35
-1.74;0.44;1.74;-8.49;15.57;10.24
-37.13;1.20;5.01;-6.10;16.33;25.59
3.16;6.10;3.38;-3.59;33.32;27.22
-0.87;5.23;5.01;-8.49;48.57;19.93
-0.87;6.10;7.41;4.46;25.26;27.22
-0.87;6.10;2.61;-1.20;-5.34;7.08
-18.62;3.70;13.83;-2.07;-35.17;2.18
3.16;5.23;-0.65;-10.13;-66.65;-3.38
3.16;-1.20;-0.65;5.99;-85.16;-15.46
0.65;3.70;-2.29;1.96;-82.76;-34.09
3.16;23.74;-5.44;1.96;-74.71;-23.52
3.16;-2.83;-4.68;2.83;-39.20;-23.52
17.64;-5.23;-8.71;-1.20;-3.81;-23.52
-1.74;-6.86;-12.74;0.44;17.97;-23.52
-1.74;-5.99;-6.32;-1.20;30.82;-34.85
0.65;-5.99;-6.32;-6.86;46.94;-24.39
-0.87;-1.20;4.14;-2.83;19.60;-9.04
-5.77;5.23;-0.65;4.46;15.57;-0.22
1.52;-1.96;-4.68;0.44;6.75;-10.67
-0.11;4.46;1.74;-1.20;4.25;20.80
-18.62;-2.83;8.17;-3.59;5.12;19.93
0.65;-4.36;6.64;-9.26;13.94;23.20
1.52;3.70;1.74;-3.59;14.70;28.86
-4.90;10.13;0.98;-2.83;5.12;23.96
-2.50;-6.86;8.17;-5.23;-2.94;33.65
0.65;5.23;9.04;0.44;-3.81;19.93
0.65;5.23;-12.74;2.83;-1.31;30.38
3.16;6.10;-0.65;2.83;-2.18;-8.28
3.16;5.23;2.61;-5.23;5.12;-18.73
3.16;-1.96;17.10;1.20;5.88;-20.36
3.16;-5.23;-3.05;3.59;8.28;-23.52
0.65;-4.36;-4.68;4.46;4.25;-18.73
1.52;-3.59;-26.46;3.59;6.75;-17.97
3.92;-1.20;-7.84;3.59;4.25;-19.49
-0.87;-5.23;-6.32;-2.07;9.91;-23.52
-2.50;-3.59;-6.32;7.62;15.57;-19.49
2.29;-5.23;-1.42;1.20;5.12;-8.28
-0.11;0.44;-5.44;-0.44;7.51;10.24
1.52;2.83;-1.42;-0.44;-1.31;13.50
3.16;2.07;-0.65;-3.59;-7.84;12.74
0.65;6.86;1.74;26.14;-11.00;13.50
-4.14;3.70;0.98;-4.46;-18.30;23.20
0.65;5.23;9.80;-7.62;-15.90;39.31
-30.71;-4.36;4.14;-2.83;-14.27;26.35
0.65;0.44;7.41;-1.20;-8.60;32.02
14.37;0.44;8.17;-2.07;13.94;19.17
-0.87;1.20;6.64;35.83;6.75;-2.61
-0.87;-4.36;5.01;2.83;15.57;2.18
0.65;1.20;3.38;8.39;20.36;-16.33
-0.87;-1.96;-0.65;6.86;42.14;-32.45
-34.74;17.32;-4.68;4.46;48.57;-13.07
0.65;-1.96;-22.43;4.46;34.09;-17.10
1.52;1.20;-5.44;2.83;12.31;-15.46
-18.62;-5.23;-5.44;10.02;4.25;-16.33
3.16;0.44;-10.35;-0.44;-23.09;-49.33
3.16;-4.36;-4.68;1.20;-50.53;-34.85
-1.74;-0.33;-3.05;-3.59;-90.82;-19.49
0.65;-3.59;-1.42;-11.65;-87.56;-17.10
3.16;0.44;-0.65;-10.89;-69.80;2.18
0.65;-19.71;-0.65;-10.13;-39.20;11.11
-0.87;2.07;-4.68;-10.13;-3.81;15.90
-0.11;0.44;-0.65;-5.23;21.24;19.17
-0.87;0.44;0.98;-2.07;31.69;24.83
-2.50;0.44;5.01;0.44;39.75;27.99
1.52;3.70;3.38;3.59;34.85;33.65
3.16;-1.20;13.07;-2.83;29.29;20.80
-17.86;6.86;4.14;-1.20;22.76;12.74
4.68;2.07;5.01;4.46;34.85;-5.01
-4.90;5.23;3.38;27.01;30.06;-12.31
3.92;-2.83;-0.65;6.86;9.15;-19.49
3.16;-1.20;-5.44;4.46;-12.63;-21.13
0.65;-1.96;-6.32;2.83;-46.50;-25.16
-4.14;-3.59;-9.47;4.46;-32.02;-27.55
1.52;-5.99;-7.84;27.01;-15.90;-23.52
-2.50;-6.86;-9.47;0.44;-21.45;-30.06
-8.93;-2.83;-7.84;-2.83;2.72;-21.13
-0.87;-2.83;-2.29;-0.44;3.48;-9.91
-0.87;-1.96;-0.65;-1.20;7.51;2.18
7.19;-6.86;0.11;-11.65;9.91;19.93
-0.11;6.10;13.07;-5.23;20.36;25.59
3.16;2.07;0.11;-0.44;38.11;28.86
1.52;4.46;6.64;4.46;29.29;27.99
2.29;1.20;9.80;3.59;13.18;28.86
-1.74;3.70;8.17;14.92;10.78;27.99
-18.62;2.07;9.80;18.95;6.75;15.90
-8.93;4.46;12.20;9.26;2.72;23.96
1.52;13.29;1.74;-3.59;-15.90;2.18
3.16;3.70;0.98;-6.86;-24.72;-9.91
3.16;-9.26;0.11;-10.13;-27.99;-23.52
-2.50;3.70;-0.65;-5.23;-24.72;-28.42
-0.87;-6.86;-4.68;-5.23;-19.06;-19.49
2.29;6.10;-5.44;-9.26;-8.60;-22.00
0.65;-1.96;-6.32;13.29;-0.54;-22.76
3.16;-1.96;-26.46;4.46;-2.94;-46.94
0.65;-2.83;-4.68;5.99;-10.24;-35.61
-25.05;-17.32;-4.68;-10.89;6.75;-25.16
-0.87;-2.83;-5.44;10.02;4.25;-14.70
2.29;-6.86;-2.29;20.47;-0.54;-0.22
0.65;-1.96;-0.65;0.44;5.12;10.24
-1.74;-0.33;-0.65;-4.46;18.73;20.80
1.52;-1.96;5.01;-6.10;15.57;39.31
0.65;3.70;5.01;-4.46;9.91;23.96
24.07;4.46;6.64;-2.07;0.22;26.35
-2.50;5.23;9.80;-6.10;-19.93;22.32
0.65;-1.20;-10.35;-6.86;-22.32;28.86
0.65;6.10;4.14;-12.52;-15.03;14.27
-0.11;-1.20;3.38;-2.07;-32.02;1.42
-0.87;-1.96;-0.65;8.39;-33.54;-13.07
-7.41;-2.83;-0.65;-0.44;-18.30;-19.49
-25.92;-4.36;-0.65;-1.20;-2.18;-23.52
-0.87;10.13;-7.84;2.83;17.21;-23.52
2.29;2.07;-7.84;4.46;29.29;-17.97
3.92;-4.36;-8.71;6.86;28.42;-22.76
0.65;-1.96;6.64;3.59;17.97;-16.33
-2.50;-4.36;-13.50;4.46;17.21;-23.52
3.16;-1.96;-4.68;1.96;7.51;-20.36
-22.65;-6.86;-0.65;5.23;8.28;-9.04
1.52;-27.01;-0.65;1.20;1.09;7.84
2.29;-1.20;1.74;-1.20;5.12;19.17
1.52;-2.83;5.01;0.44;1.09;3.81
-0.87;-21.34;2.61;-27.77;-0.54;28.86
2.29;3.70;0.98;-1.20;4.25;32.02
-10.56;0.44;8.17;-1.20;4.25;30.38
1.52;1.20;5.01;1.96;19.60;27.99
0.65;4.46;-14.37;-8.49;33.32;33.65
-11.43;-1.20;11.43;-18.95;28.42;22.32
-8.17;4.46;7.41;-1.20;9.91;7.08
-1.74;-1.96;4.14;-6.10;2.72;-5.01
0.65;-4.36;-0.65;0.44;-24.72;-23.52
1.52;1.20;-4.68;9.26;-33.54;-30.82
0.65;-1.96;-7.84;-1.20;-46.50;-33.21
3.16;-1.20;-4.68;1.20;-50.53;-30.82
2.29;-6.86;-13.50;9.26;-38.44;0.65
2.29;0.44;-12.74;1.20;-18.30;-29.19
2.29;1.20;-8.71;1.96;5.12;-39.64
3.16;-2.83;-6.32;-0.44;9.91;-23.52
2.29;-2.83;-3.05;-1.20;14.70;-8.28
-16.99;-8.39;0.98;23.74;-2.18;11.11
-0.87;-14.05;-0.65;1.96;25.26;19.93
-4.14;3.70;3.38;-1.20;22.76;27.99
-0.87;28.64;1.74;-1.20;30.82;29.62
-2.50;3.70;7.41;0.44;28.42;27.99
-1.74;-2.83;7.41;-2.07;17.21;18.30
-4.14;-19.71;4.14;3.59;5.12;23.96
2.29;2.07;9.04;-3.59;-3.81;27.99
-0.87;1.20;3.38;-3.59;-17.42;-8.28
0.65;2.07;17.86;-1.20;-6.97;2.18
0.65;4.46;1.74;-14.16;-8.60;-11.43
-0.11;-2.83;0.98;-3.59;-11.87;-6.64
3.16;4.46;-4.68;1.20;-11.00;-28.42
3.16;-1.20;-7.84;2.83;-7.84;-23.52
-0.87;-5.99;-7.84;-1.20;-12.63;-25.16
1.52;-2.83;-20.80;7.62;-15.90;-23.52
2.29;-32.56;-7.84;0.44;-9.37;-21.13
26.46;-10.89;-4.68;10.89;3.48;-31.58
-0.11;-5.99;9.80;11.65;1.09;-35.61
-33.11;1.20;-2.29;3.59;2.72;-10.67
-1.74;-1.96;0.98;1.96;-7.84;9.47
2.29;-2.83;0.11;-1.20;-11.87;14.27
-2.50;1.20;0.98;-2.07;-8.60;25.59
3.92;2.07;7.41;-8.49;-8.60;9.47
3.16;4.46;12.20;-1.20;4.25;27.99
1.52;4.46;30.82;-9.26;10.78;22.32
-2.50;6.10;5.01;-1.20;20.36;38.44
-5.77;6.10;6.64;-1.20;20.36;36.05
-1.74;3.70;10.67;1.20;31.69;22.32
-4.14;2.07;13.07;-0.44;14.70;-18.73
3.16;-6.86;2.61;-9.26;1.09;-0.22
31.36;-1.20;-0.65;27.01;10.78;-20.36
3.16;2.07;3.38;1.20;7.51;-15.46
3.92;1.20;-1.42;4.46;10.78;-18.73
-0.87;-5.23;-1.42;5.99;9.91;-18.73
-0.87;43.12;-8.71;-16.55;10.78;-22.00
3.16;-1.96;5.01;3.59;7.51;-19.49
-5.77;2.07;-11.87;13.29;22.76;-28.42
-0.87;-2.83;-8.71;4.46;5.12;-18.73
1.52;2.07;-4.68;-0.44;17.21;-7.41
3.16;-2.83;0.11;17.32;-19.93;2.18
3.16;0.44;-2.29;3.59;-20.69;12.74
-39.53;18.95;-0.65;-35.83;-6.97;20.80
-0.11;-1.96;-0.65;-10.13;-5.34;22.32
-1.74;-2.83;4.14;-2.07;-5.34;25.59
-4.90;6.10;0.98;-5.23;-19.06;27.22
-4.14;-4.36;4.14;-3.59;1.85;20.80
-0.87;2.83;11.43;-8.49;-20.69;32.02
0.65;1.20;6.64;-11.65;-19.93;11.87
1.52;2.07;1.74;-12.52;-11.87;1.42
3.16;0.44;0.98;-6.10;-6.97;-32.45
4.68;-1.20;-1.42;-0.44;-5.34;-13.94
-1.74;3.70;-0.65;-1.20;-2.18;-23.52
1.52;-5.99;-6.32;5.23;5.12;-26.03
2.29;-2.83;-0.65;2.83;9.15;-24.39
-0.87;-2.83;-6.32;2.83;5.12;-22.76
0.65;-5.99;-7.84;1.20;5.12;-22.00
20.80;8.49;-8.71;11.65;-2.94;-26.03
-5.77;-2.83;-7.84;4.46;1.09;-22.76
-0.87;0.44;-8.71;-1.20;17.21;-16.33
-0.87;-1.20;-2.29;2.83;17.21;4.68
2.29;-2.83;0.11;2.83;20.36;-1.85
3.16;2.07;5.01;6.86;13.94;26.35
2.29;5.23;5.01;3.59;4.25;23.96
-1.74;1.20;4.14;-3.59;1.85;27.99
-0.87;-1.20;2.61;-6.86;-2.18;23.96
-12.20;1.20;0.11;-2.83;-10.24;27.99
0.65;6.10;7.41;-1.20;-11.87;32.89
-2.50;6.10;8.17;-9.26;-9.37;14.27
-0.87;1.20;5.01;-3.59;-5.34;14.27
-4.90;4.46;6.64;-1.20;-6.21;-6.64
-0.87;-1.96;-0.65;7.62;-2.94;-22.00
-35.61;2.07;-0.65;2.83;5.12;-23.52
1.52;-4.36;-1.42;5.99;10.78;-27.55
3.16;-4.36;-0.65;1.20;3.48;-18.73
1.52;2.07;-13.50;10.89;26.79;-8.28
1.52;-19.71;-9.47;6.86;30.82;-21.13
1.52;3.70;-15.90;4.46;17.97;-50.09
0.65;-4.36;-7.84;28.53;17.21;-25.16
1.52;1.20;-3.05;3.59;19.60;-13.07
-13.83;-19.71;-5.44;-5.23;2.72;-1.85
-0.87;-1.20;0.11;-2.83;-23.96;4.68
3.16;-1.96;0.11;-0.44;-46.50;14.27
-0.87;3.70;13.83;-1.20;-48.90;25.59
3.16;-4.36;5.01;22.98;-45.63;14.27
0.65;0.44;4.14;-3.59;-45.63;19.17
3.16;-1.20;3.38;-2.07;-44.87;17.53
-2.50;6.86;15.46;-1.20;-19.93;27.99
-3.38;6.10;8.17;-1.20;5.12;19.17
-0.87;2.07;7.41;0.44;30.82;11.11
-0.87;2.07;2.61;-2.07;54.23;-1.85
-0.11;6.10;1.74;22.98;54.23;-9.91
1.52;-0.33;-0.65;1.20;30.82;-21.13
-1.74;2.07;-2.29;-6.10;21.24;-21.13
3.16;3.70;-0.65;1.20;10.78;-16.33
-5.77;-6.86;-7.08;1.20;-8.60;-16.33
-4.14;1.20;-7.84;0.44;-20.69;-25.16
0.65;-6.86;-8.71;-14.16;-25.48;-34.09
-12.20;-6.86;-7.84;2.83;-20.69;-26.03
-4.14;-11.65;-4.68;-1.20;-5.34;-10.67
-2.50;6.10;-0.65;-1.20;-2.18;-1.85
-34.74;-4.36;-0.65;-4.46;3.48;9.47
1.52;4.46;4.14;2.83;9.15;22.32
3.16;5.23;4.14;3.59;5.12;23.20
2.29;3.70;-7.84;2.83;2.72;27.99
-0.87;4.46;-3.05;1.20;3.48;38.44
0.65;1.20;6.64;-3.59;1.09;27.22
0.65;6.10;7.41;1.20;0.22;32.02
-1.74;1.20;7.41;-0.44;2.72;23.20
-8.93;5.23;-13.50;2.83;5.88;32.89
-7.41;-1.20;12.20;1.96;5.88;-2.61
2.29;-1.20;5.77;1.20;3.48;-17.97
3.16;32.67;-0.65;7.62;2.72;-23.52
-0.87;-2.83;-2.29;2.83;-2.18;-24.39
-0.87;2.83;-5.44;6.86;5.88;-17.97
-0.87;-1.20;-6.32;-8.49;19.60;-19.49
2.29;-5.99;-0.65;1.96;17.97;-24.39
3.16;-5.99;-9.47;5.99;5.12;-26.03
0.65;-4.36;-4.68;4.46;-13.39;-27.55
4.68;4.46;-1.42;-2.07;-11.87;-5.01
1.52;-2.83;-2.29;-1.20;-19.93;9.47
3.16;2.07;1.74;0.44;-11.87;16.77
2.29;0.44;1.74;29.40;-8.60;17.53
-0.87;-1.96;11.43;2.83;1.09;23.96
0.65;-1.20;3.38;5.99;2.72;25.59
2.29;-0.33;6.64;-0.44;3.48;27.22
3.16;1.20;6.64;-0.44;5.12;26.35
3.16;2.07;25.16;-4.46;-4.57;4.68
-2.50;4.46;8.17;-3.59;-10.24;15.14
0.65;2.83;9.04;-30.27;-8.60;2.18
-0.87;3.70;7.41;1.96;-2.94;-6.64
0.65;-3.59;17.10;-1.20;-7.84;-28.42
3.16;-1.96;1.74;7.62;-6.21;-23.52
0.65;-2.83;-1.42;0.44;2.72;-23.52
1.52;1.20;-0.65;12.41;5.88;-23.52
1.52;-7.62;-0.65;9.26;9.91;-21.13
-0.87;2.07;-4.68;0.44;12.31;-21.13
-0.87;-4.36;-4.68;2.83;7.51;-27.55
0.65;-1.96;-7.84;1.20;6.75;-17.10
1.52;3.70;-7.84;-11.65;4.25;-7.41
3.16;3.70;2.61;-8.49;-2.18;3.05
3.16;0.44;-5.44;-6.10;5.12;13.50
0.65;-18.08;4.14;23.74;1.09;23.20
2.29;2.07;3.38;-29.40;-5.34;19.93
-12.20;-0.33;7.41;0.44;4.25;27.99
2.29;9.26;6.64;4.46;5.88;32.02
0.65;6.10;4.14;-1.20;-3.81;23.96
8.71;-19.71;9.80;-5.23;1.09;30.38
2.29;1.20;-8.71;-0.44;2.72;16.77
-0.87;-1.20;22.76;-1.20;-6.21;-5.01
2.29;-1.20;9.04;-3.59;-7.84;-9.04
-2.50;-1.96;3.38;-2.07;-3.81;-19.49
-7.41;3.70;-1.42;4.46;3.48;-22.76
1.52;4.46;-5.44;3.59;1.09;-18.73
-4.90;2.07;-7.84;37.46;5.12;-13.94
3.92;-1.20;-9.47;2.83;4.25;-22.76
3.92;-9.26;-4.68;-2.83;5.12;-12.31
3.92;1.20;-4.68;5.99;5.12;-30.82
3.16;-5.99;-12.74;4.46;4.25;-23.52
-0.87;-2.83;-0.65;-0.44;-13.39;-6.64
-4.14;-1.96;-0.65;-0.44;-6.21;0.65
3.16;4.46;29.95;1.20;-11.00;11.87
-1.74;-1.20;0.11;-2.07;-2.18;23.20
-4.14;0.44;3.38;-38.33;3.48;17.53
-6.53;6.10;5.01;-3.59;15.57;-5.88
-4.14;-1.96;5.01;-1.20;19.60;23.96
-0.11;2.07;5.01;-4.46;46.17;21.56
-0.87;-0.33;8.17;26.14;1.09;27.99
-10.56;3.70;9.04;-2.83;-3.81;19.93
-4.14;5.23;9.80;-2.07;-3.81;2.18
-4.14;0.44;4.14;5.99;-9.37;-2.61
-0.11;-1.20;0.98;7.62;-19.93;-15.46
3.16;1.20;-2.29;3.59;-19.93;-25.16
2.29;-2.83;-4.68;7.62;-12.63;-23.52
2.29;-1.20;-11.87;0.44;0.22;-20.36
0.65;-4.36;-9.47;-0.44;7.51;-20.36
2.29;-6.86;-7.84;-3.59;12.31;-14.70
3.16;-2.83;-8.71;5.99;13.94;-25.16
-2.50;-1.20;-1.42;1.20;5.12;-20.36
3.16;-2.83;8.17;-2.07;-0.54;-16.33
3.16;8.49;-0.65;1.96;-0.54;0.65
3.16;4.46;-1.42;1.20;-7.84;4.68
-36.37;2.83;2.61;-14.92;-8.60;19.17
-0.11;-2.83;-20.80;-6.10;-3.81;22.32
1.52;3.70;1.74;-14.16;-6.97;23.96
-2.50;2.07;-1.42;-2.07;7.51;26.35
-7.41;-27.77;7.41;-6.86;30.82;27.99
3.16;6.10;6.64;-30.27;17.97;40.95
2.29;3.70;0.11;1.20;9.91;22.32
3.16;3.70;9.80;8.39;5.88;7.08
1.52;3.70;4.14;0.44;-11.87;0.65
-1.74;-5.99;0.98;1.20;-18.30;-11.43
2.29;-2.83;-1.42;7.62;-15.03;-18.73
3.16;1.20;-8.71;17.32;-8.60;-22.00
3.16;-0.33;-1.42;10.02;1.09;-19.49
3.16;-2.83;-12.74;9.26;3.48;-11.43
0.65;-6.86;-3.05;-10.13;-4.57;-25.16
1.52;-2.83;-3.05;-0.44;-9.37;-51.73
5.55;10.89;-0.65;3.59;-2.18;-22.00
3.16;4.46;-1.42;1.20;-3.81;-12.31
-16.99;-4.36;-0.65;-2.07;5.12;-1.85
-2.50;4.46;-0.65;-1.20;17.21;12.74
-1.74;2.07;0.11;2.83;16.33;19.93
-1.74;1.20;-0.65;-3.59;16.33;25.59
-1.74;-1.96;3.38;-0.44;9.15;25.59
-3.38;5.23;3.38;-3.59;-5.34;29.62
6.32;-22.98;9.80;1.20;5.12;23.96
-0.87;2.07;11.43;-2.07;0.22;28.86
1.52;6.10;7.41;-1.20;-0.54;20.80
3.16;3.70;0.98;-3.59;-3.81;4.68
-4.14;3.70;7.41;-1.20;-8.60;-3.38
2.29;4.46;7.41;-1.20;-15.90;-31.58
3.16;1.20;-0.65;-5.23;-8.60;-26.03
3.16;-1.96;-1.42;0.44;-20.69;-23.52
3.16;-1.20;-11.11;0.44;-17.42;-19.49
3.16;0.44;-6.32;4.46;-11.00;-21.13
2.29;-1.96;-5.44;1.20;2.72;-21.13
3.16;2.07;-7.84;-1.20;14.70;-30.82
1.52;3.70;-7.84;9.26;15.57;-21.13
-0.11;-5.99;-11.87;0.44;8.28;-26.79
3.16;-2.83;-2.29;-0.44;12.31;2.18
-9.80;-10.02;2.61;3.59;9.15;11.11
-8.17;3.70;-4.68;1.20;5.12;20.80
-2.50;2.07;11.43;-1.20;1.85;23.96
-1.74;0.44;8.17;-3.59;-2.18;25.59
-0.87;6.10;8.17;-1.20;-8.60;25.59
3.16;4.46;3.38;-6.10;-15.03;22.32
19.28;2.07;8.17;-6.10;-13.39;29.62
17.64;2.07;3.38;0.44;-21.45;15.90
0.65;6.10;1.74;-5.23;7.51;10.24
2.29;4.46;0.98;0.44;30.82;-5.88
2.29;-23.74;-0.65;-1.20;20.36;-16.33
16.01;-1.20;-1.42;3.59;26.03;-18.73
0.65;-2.83;-1.42;11.65;30.82;-12.31
3.16;-1.20;-5.44;14.05;22.00;-21.13
3.16;16.55;-6.32;9.26;13.94;-17.97
-7.41;6.10;-3.05;8.39;7.51;-14.70
3.16;-1.96;-15.14;3.59;-14.27;-26.79
-4.14;-5.99;-2.29;-1.20;-25.48;-16.33
-2.50;3.70;-3.05;-1.20;-32.78;-5.01
0.65;0.44;-0.65;-0.44;-54.56;1.42
8.71;-1.20;-1.42;11.65;-42.47;6.21
7.95;2.83;-3.05;-9.26;-41.60;16.77
-2.50;5.23;17.86;-6.86;-42.47;30.38
3.16;2.83;3.38;-14.16;-29.51;15.90
-4.90;31.04;0.11;-2.83;-13.39;19.17
0.65;2.07;5.01;-10.13;5.12;15.90
0.65;4.46;-23.20;-3.59;14.70;11.11
-2.50;2.83;1.74;-10.13;19.60;13.50
0.65;1.20;23.52;-1.20;17.97;-1.85
-1.74;-1.20;-0.65;-2.83;-7.84;-8.28
-1.74;2.07;-3.05;-5.23;13.18;-45.30
-1.74;-1.96;1.74;4.46;9.91;-27.55
-0.11;4.46;-26.46;3.59;10.78;-40.51
3.16;-14.05;-0.65;8.39;5.88;-23.52
3.16;1.20;-28.86;10.89;5.12;-22.76
3.16;-1.20;-4.68;6.86;3.48;-17.10
4.68;-2.83;-0.65;7.62;-3.81;-27.55
3.16;0.44;-3.81;9.26;9.91;-10.67
3.16;-2.83;-1.42;-0.44;8.28;-0.98
3.16;-4.36;-0.65;6.86;5.12;7.08
-0.87;-2.83;4.14;2.83;5.12;20.80
0.65;1.20;-23.20;-1.20;5.12;23.96
-0.87;-7.62;3.38;-21.34;5.12;27.99
1.52;6.10;1.74;-2.83;5.88;13.50
-0.87;4.46;9.80;-5.23;6.75;27.99
-0.87;2.83;11.43;-16.55;3.48;27.22
-1.74;-11.65;12.20;31.80;5.12;35.28
3.92;0.44;7.41;0.44;5.12;27.22
-0.11;10.13;4.14;-2.07;0.22;3.05
2.29;3.70;1.74;0.44;2.72;-3.38
-4.90;-2.83;-0.65;-1.20;-2.94;-18.73
-4.14;0.44;-1.42;-1.20;0.22;-23.52
0.65;1.20;-6.32;-2.07;-6.97;-27.55
1.52;-3.59;-3.05;6.86;-12.63;-22.76
1.52;-0.33;-2.29;7.62;-11.87;-19.49
2.29;-8.39;-4.68;2.83;-6.21;-21.13
-0.87;-5.99;-6.32;8.39;-2.94;-31.58
0.65;-4.36;-3.81;3.59;-6.97;-7.41
0.65;27.01;-6.32;26.14;-18.30;-10.67
3.16;-5.23;2.61;-14.16;-15.90;2.18
15.25;31.04;-0.65;4.46;5.12;12.74
1.52;0.44;30.82;0.44;10.78;22.32
3.16;4.46;-2.29;-1.20;13.18;27.22
11.98;0.44;3.38;-8.49;7.51;29.62
1.52;-6.86;0.11;-8.49;19.60;27.99
-2.50;-1.20;7.41;-13.29;13.94;17.53
-5.77;5.23;8.17;-6.86;2.72;28.86
-7.41;0.44;8.17;-13.29;-15.03;7.84
0.65;2.07;5.01;-12.52;-20.69;1.42
-4.14;2.07;3.38;-4.46;-32.78;-17.97
-11.43;2.07;-0.65;-2.83;-30.38;-22.76
-0.87;0.44;-3.05;2.83;-36.05;-34.85
0.65;1.20;-5.44;6.86;-28.75;-24.39
19.28;-1.96;-6.32;11.65;-6.21;-20.36
1.52;-2.83;-4.68;12.41;9.91;-23.52
1.52;1.20;-6.32;9.26;22.76;-11.43
2.29;2.07;-3.05;2.83;22.76;-28.42
-0.87;1.20;-3.81;0.44;34.85;-18.73
-26.68;-32.56;-5.44;-15.68;18.73;-8.28
2.29;5.23;-1.42;4.46;13.18;-5.88
2.29;-5.23;0.98;7.62;6.75;7.84
0.65;-1.20;-0.65;-2.07;5.88;15.14
-0.87;6.10;1.74;-1.20;9.15;17.53
-4.14;-10.02;1.74;-1.20;-5.34;20.80
0.65;-1.20;0.11;-0.44;-9.37;23.20
0.65;0.44;2.61;1.20;-11.87;22.32
-4.14;2.07;6.64;1.20;-11.87;31.25
-9.80;4.46;6.64;-0.44;-5.34;16.77
1.52;-2.83;7.41;4.46;3.48;7.08
3.16;-3.59;5.01;-1.20;25.26;0.65
-7.41;-9.26;1.74;-1.20;30.82;-13.94
1.52;-1.20;-7.84;1.20;30.82;-19.49
0.65;-5.23;-4.68;1.20;5.12;-16.33
1.52;3.70;1.74;6.86;1.85;-18.73
5.55;-1.20;-3.05;10.02;-5.34;-17.97
3.16;1.20;-11.11;7.62;-8.60;-15.46
3.92;-1.20;-4.68;3.59;-24.72;-29.19
3.16;2.07;-3.05;2.83;-25.48;-27.55
3.16;-2.83;-3.81;-1.20;-24.72;-10.67
3.16;4.46;12.20;-2.83;-16.66;0.65
-0.87;1.20;2.61;-6.86;-6.97;0.65
-4.14;2.07;3.38;-2.07;-4.57;17.53
-6.53;0.44;8.17;-3.59;-0.54;44.10
2.29;2.07;3.38;-4.46;-7.84;17.53
1.52;2.07;6.64;-13.29;-7.84;23.96
-2.50;6.10;8.17;-2.07;-10.24;20.80
-5.77;2.07;8.17;-1.20;-17.42;33.65
-1.74;-19.71;7.41;-11.65;-8.60;16.77
-4.14;3.70;22.76;1.20;2.72;1.42
4.68;2.07;-0.65;-0.44;5.12;-10.67
2.29;13.29;-0.65;-11.65;5.12;-23.52
2.29;3.70;-0.65;-8.49;-19.93;-25.16
-1.74;-6.86;-5.44;-2.07;0.22;-24.39
4.68;-4.36;-5.44;-2.07;5.12;-23.52
1.52;-1.20;-4.68;24.50;9.91;-18.73
0.65;-1.96;-9.47;5.99;14.70;-16.33
-1.74;4.46;-1.42;11.65;-10.24;-30.06
-0.11;-3.59;-1.42;10.02;12.31;-34.09
3.16;-19.71;-1.42;4.46;15.57;-3.38
3.92;5.23;1.74;11.65;29.29;5.44
-1.74;22.98;-0.65;-5.23;30.82;15.14
-0.87;-28.53;5.01;22.98;22.76;23.96
1.52;5.23;-0.65;4.46;5.88;27.99
3.16;0.44;6.64;0.44;-16.66;27.22
-8.17;3.70;6.64;-9.26;-32.78;25.59
-2.50;5.23;12.20;0.44;-27.99;20.80
-0.87;6.10;-14.37;-3.59;-18.30;27.99
7.95;6.10;5.01;7.62;-10.24;16.77
-2.50;-7.62;5.01;7.62;-6.21;2.18
-0.87;-5.99;0.98;-6.10;-8.60;-8.28
3.16;-14.92;-0.65;-13.29;-10.24;-21.13
-4.90;-5.23;8.17;-3.59;1.09;-24.39
-1.74;-1.96;-7.84;-3.59;6.75;-23.52
-2.50;2.07;13.07;3.59;8.28;-20.36
0.65;-1.20;-9.47;25.37;18.73;-19.49
3.16;-4.36;3.38;2.83;5.88;-19.49
3.92;-27.01;-5.44;4.46;4.25;-33.21
-4.14;-2.83;-3.81;1.20;0.22;-24.39
3.16;-5.23;-4.68;5.99;0.22;-9.04
2.29;2.07;-2.29;-0.44;-7.84;-9.04
3.16;23.74;0.11;-1.20;-11.00;14.27
2.29;3.70;1.74;-2.07;0.22;27.99
1.52;1.20;0.11;2.83;3.48;33.65
-1.74;3.70;8.17;-27.01;5.12;28.86
2.29;5.23;5.01;-0.44;5.12;27.99
-7.41;-20.47;6.64;-1.20;2.72;27.22
3.16;-1.20;8.17;-6.86;13.18;28.86
-0.11;1.20;33.21;1.20;5.12;-1.85
-5.77;1.20;1.74;0.44;5.12;-22.00
-0.11;7.73;9.80;-11.65;1.09;-9.91
18.40;-24.50;0.98;-21.34;10.78;-10.67
3.16;-1.20;-0.65;9.26;13.94;-19.49
8.71;3.70;-5.44;7.62;16.33;-22.00
-0.87;6.10;-5.44;3.59;2.72;-24.39
-8.17;3.70;-1.42;2.83;6.75;-22.76
-4.14;-1.96;-6.32;36.59;38.11;-20.36
3.16;-3.59;-12.74;3.59;10.78;-27.55
1.52;-4.36;-7.84;2.83;-7.84;-23.52
2.29;-1.20;-3.81;-4.46;-4.57;-10.67
-4.14;2.07;-3.05;0.44;-9.37;-1.85
1.52;11.76;-0.65;-1.20;-29.51;6.21
-5.77;31.80;1.74;30.17;-20.69;7.84
1.52;2.07;1.74;-2.07;-46.50;12.74
-0.11;2.07;5.01;-0.44;-36.05;19.93
-4.90;2.07;1.74;2.83;-27.99;25.59
-0.87;5.23;6.64;-14.92;2.72;27.99
26.46;-32.56;11.43;-10.13;29.29;37.68
3.16;2.07;8.17;-4.46;39.75;25.59
3.16;-2.83;5.01;-1.20;31.69;7.84
-0.87;14.92;3.38;-1.20;30.06;0.65
2.29;3.70;0.98;2.83;15.57;-19.49
3.16;7.73;-0.65;-2.83;2.72;-21.13
3.92;-14.92;-0.65;5.99;-20.69;-23.52
0.65;-2.83;-0.65;4.46;-20.69;-21.13
-4.90;-5.99;-5.44;3.59;-17.42;-23.52
3.16;-4.36;-7.84;6.86;-3.81;-17.97
16.01;-1.96;-5.44;-22.98;7.51;-28.42
3.92;6.10;-7.84;3.59;17.97;-22.76
3.16;-1.96;-3.81;-9.26;18.73;-10.67
1.52;4.46;0.98;-2.07;9.91;29.62
-1.74;-1.20;-0.65;-6.86;5.12;19.93
-10.56;-1.20;1.74;1.20;-6.97;23.96
5.55;-3.59;3.38;-12.52;5.12;27.99
-0.87;2.07;4.14;-3.59;1.09;27.99
-0.11;-6.86;5.77;-5.23;-5.34;27.22
3.92;1.20;6.64;-6.86;1.09;23.20
-2.50;5.23;7.41;-14.92;-6.97;27.22
-2.50;-2.83;9.04;-9.26;-17.42;9.47
-4.14;-2.83;3.38;-5.23;-11.87;-2.61
-0.87;9.26;5.01;-25.37;-10.24;-15.46
-0.87;5.23;-0.65;-5.23;-9.37;-26.03
2.29;4.46;-0.65;0.44;-6.97;-30.82
0.65;1.20;-0.65;3.59;-2.18;-17.97
-0.87;-2.83;-4.68;4.46;1.85;-18.73
0.65;-5.99;-11.11;10.89;0.22;-19.49
-0.87;-7.62;-10.35;10.89;4.25;-36.48
3.16;2.83;-3.81;7.62;4.25;-26.79
-4.14;-2.83;-3.05;2.83;6.75;-22.00
0.65;-3.59;-1.42;-1.20;5.12;-2.61
20.04;-17.32;0.11;7.62;10.78;14.27
20.04;2.07;0.11;3.59;30.06;14.27
-1.74;4.46;0.98;33.43;33.32;27.99
-0.87;5.23;-2.29;2.83;27.66;29.62
-2.50;1.20;5.01;5.99;17.21;27.99
-2.50;20.58;1.74;0.44;3.48;27.22
-1.74;1.20;8.17;-2.07;-15.03;27.22
2.29;4.46;11.43;-6.86;-24.72;25.59
1.52;29.40;8.17;-14.16;-28.75;11.11
2.29;10.13;8.17;-9.26;-37.57;-5.88
-2.50;-9.26;-0.65;-9.26;-35.17;-41.27
0.65;-1.96;-0.65;-1.20;-36.05;-26.79
-31.58;-1.20;-0.65;2.83;-22.32;-23.52
3.92;-2.83;-3.81;4.46;-4.57;-25.16
3.92;-3.59;-1.42;10.89;10.78;-14.70
-0.87;-1.96;-5.44;4.46;18.73;-18.73
28.86;-4.36;-9.47;-2.07;20.36;-15.46
3.16;2.07;-8.71;1.20;21.24;-23.52
-2.50;-1.96;-6.32;-2.83;11.54;-18.73
-4.14;-5.23;-7.84;-3.59;10.78;-6.64
0.65;0.44;-0.65;2.83;9.91;1.42
1.52;-2.83;-0.65;-0.44;15.57;12.74
-39.53;5.23;0.98;-6.10;13.18;19.17
-0.11;0.44;-0.65;-2.07;-7.84;15.14
-4.14;4.46;-0.65;-7.62;-10.24;19.93
1.52;2.83;1.74;-0.44;-13.39;26.35
-1.74;6.10;0.98;-5.23;-15.90;16.77
-0.87;6.10;-0.65;-5.23;-15.90;27.99
-12.20;4.46;9.80;-2.83;-2.18;12.74
-2.50;0.44;-15.90;-6.10;-9.37;3.05
-0.87;-3.59;1.74;-1.20;9.15;-6.64
-8.17;5.23;-1.42;13.29;16.33;-20.36
-3.38;-0.33;1.74;11.65;15.57;-19.49
2.29;-1.20;-3.05;8.39;10.78;-16.33
-0.87;1.20;-3.05;10.02;7.51;-12.31
3.16;1.20;-5.44;2.83;-6.21;-13.07
3.16;-0.33;-0.65;4.46;-2.18;-11.43
-2.50;14.16;-3.05;-1.20;18.73;-24.39
1.52;-1.20;-3.05;9.26;25.26;-19.49
3.16;0.44;-1.42;1.20;35.72;-5.88
2.29;0.44;-0.65;5.99;23.63;4.68
-0.87;-17.32;-0.65;-1.20;1.85;12.74
1.52;1.20;3.38;-2.07;-27.99;12.74
1.52;2.07;0.11;1.20;-46.50;17.53
3.16;3.70;-0.65;-4.46;-57.72;14.27
1.52;2.07;-0.65;-8.49;-58.59;23.96
3.92;5.23;4.14;-2.83;-46.50;22.32
0.65;0.44;5.01;-2.83;-20.69;26.35
-0.87;3.70;8.17;-27.01;17.97;15.90
20.04;1.20;6.64;-1.20;36.48;3.81
-2.50;-20.47;4.14;-0.44;38.11;-9.04
-1.74;-14.05;-0.65;-0.44;25.26;-17.97
-0.11;3.70;-0.65;23.74;5.12;-19.49
1.52;3.70;-27.22;2.83;5.12;-12.31
-22.65;-27.01;-6.32;-1.20;5.12;-14.70
3.16;0.44;-11.87;2.83;7.51;-14.70
2.29;-11.65;-4.68;29.40;18.73;-12.31
2.29;-1.96;-5.44;3.59;17.21;-26.03
0.65;0.44;-3.81;-1.20;23.63;-23.52
3.16;5.23;-1.42;-0.44;5.12;-8.28
-4.90;1.20;0.11;0.44;4.25;-3.38
-4.90;10.13;-0.65;14.05;-6.97;9.47
3.16;-4.36;1.74;-1.20;-2.94;16.77
-0.87;5.23;0.98;7.62;-21.45;20.80
-2.50;4.46;3.38;2.83;-8.60;24.83
-2.50;-2.83;3.38;-2.83;-11.87;14.27
-4.90;7.73;8.17;-6.10;-10.24;23.20
-1.74;5.23;9.80;-6.10;-10.24;27.99
0.65;6.10;9.80;-2.07;-8.60;32.89
-0.87;5.23;5.01;-0.44;-3.81;6.21
-0.11;6.10;3.38;-6.86;-3.81;-6.64
-0.87;4.46;-0.65;-0.44;-6.97;-23.52
0.65;-2.83;12.20;6.86;4.25;-18.73
2.29;-4.36;-4.68;1.20;9.15;-20.36
3.16;0.44;-3.05;5.23;4.25;-22.00
-9.80;-6.86;-0.65;6.86;9.91;-19.49
2.29;-3.59;14.70;5.99;7.51;-25.16
-16.99;1.20;-2.29;13.29;9.15;-24.39
3.16;-4.36;-3.05;5.99;13.94;-11.43
3.16;1.20;-8.71;1.20;11.54;-18.73
-4.14;4.46;-0.65;-15.68;33.32;3.81
-4.14;2.07;5.01;-1.20;30.82;19.93
-0.11;10.89;1.74;-0.44;18.73;27.99
3.16;6.10;8.17;-5.23;-5.34;16.77
7.19;-2.83;1.74;-6.86;-23.09;20.80
0.65;1.20;3.38;-2.83;-32.78;11.11
0.65;2.07;7.41;-2.83;-37.57;15.90
-0.87;2.07;11.43;12.41;-46.50;23.20
-0.87;3.70;9.80;-6.86;-44.10;7.84
-0.87;6.10;25.16;-6.10;-27.99;-30.82
0.65;2.83;-0.65;-2.07;-11.00;-14.70
0.65;1.20;0.98;-0.44;5.12;-23.52
0.65;-2.83;-1.42;-0.44;17.97;-23.52
0.65;3.70;-0.65;-1.20;13.18;-19.49
1.52;-6.86;-2.29;1.20;13.18;-15.46
3.92;2.07;-8.71;7.62;12.31;-27.55
2.29;-10.02;0.11;3.59;9.91;-22.76
2.29;-5.99;-9.47;9.26;7.51;-30.82
0.65;-4.36;-8.71;4.46;5.12;-21.13
3.92;2.07;-2.29;16.44;5.88;-9.04
3.92;-5.99;-2.29;4.46;5.12;2.18
2.29;1.20;1.74;2.83;5.12;13.50
1.52;1.20;0.98;6.86;5.12;27.99
-1.74;-1.20;-22.43;1.20;12.31;27.99
-4.90;31.80;2.61;4.46;7.51;32.02
11.98;-4.36;6.64;2.83;17.97;32.89
0.65;5.23;5.01;-6.10;48.57;36.05
-1.74;2.07;10.67;-6.86;16.33;33.65
-1.74;5.23;0.11;-8.49;8.28;23.96
2.29;7.73;8.17;0.44;5.12;10.24
3.16;3.70;1.74;5.99;5.88;-8.28
-13.83;3.70;2.61;11.65;-2.18;-13.07
-1.74;3.70;-0.65;9.26;-15.90;-17.97
1.52;2.07;-2.29;3.59;-23.09;-18.73
-0.87;-6.86;-9.47;1.20;-20.69;-14.70
2.29;-11.65;-8.71;2.83;-10.24;-22.00
-4.14;-4.36;-11.11;1.20;-2.18;-23.52
3.92;-5.23;-5.44;-6.10;-10.24;-34.85
30.49;-4.36;-4.68;-1.20;-15.90;-34.85
3.16;6.10;-3.05;-2.07;-18.30;-12.31
-4.14;-1.96;-1.42;-8.49;-23.09;-5.01
-4.90;-1.20;-2.29;-7.62;-36.05;-0.22
2.29;-0.33;-15.90;-5.23;-13.39;6.21
1.52;0.44;-1.42;-2.83;-6.97;14.27
-0.87;-1.20;5.77;-2.83;-2.94;-6.64
-1.74;3.70;0.98;-2.83;5.88;19.93
3.16;4.46;13.83;-3.59;9.15;26.35
-4.14;3.70;-9.47;-2.83;5.12;42.47
2.29;0.44;9.80;3.59;16.33;5.44
-1.74;6.10;10.67;-1.20;31.69;28.86
-1.74;4.46;5.01;-1.20;30.06;-0.98
3.92;0.44;-0.65;2.83;9.91;9.47
21.67;1.20;-0.65;-2.07;12.31;-23.52
3.16;0.44;-2.29;3.59;9.15;-46.94
0.65;3.70;-3.05;10.02;3.48;-14.70
1.52;-4.36;-3.05;11.65;-6.97;-14.70
3.16;-1.96;-6.32;11.65;-20.69;-21.13
3.16;-1.96;-5.44;11.65;-30.38;-31.58
2.29;-6.86;-22.43;3.59;-24.72;-22.76
2.29;-2.83;-27.22;-1.20;-18.30;-5.88
-0.87;-5.23;-23.96;-1.20;-7.84;2.18
3.92;-1.20;0.98;-6.86;1.09;12.74
-4.14;5.23;2.61;-5.23;5.12;20.80
1.52;0.44;0.98;-2.07;13.94;27.99
0.65;-1.20;5.01;1.96;17.21;30.38
32.13;0.44;11.43;3.59;12.31;27.99
0.65;-1.20;8.17;-2.83;15.57;27.99
3.16;2.07;9.04;-2.07;10.78;31.25
0.65;4.46;11.43;-1.20;9.91;25.59
-0.87;6.10;0.98;-2.83;4.25;19.17
-0.11;2.07;-3.81;-2.83;0.22;-8.28
2.29;4.46;12.20;0.44;-2.18;-10.67
2.29;6.10;-2.29;13.29;-20.69;-18.73
3.92;-1.96;-3.81;4.46;38.11;-13.07
3.16;0.44;-4.68;3.59;20.36;-16.33
1.52;-4.36;-11.11;1.20;-1.31;-12.31
3.16;-1.20;-7.08;9.26;13.18;-17.97
3.16;-1.20;-7.84;2.83;14.70;-24.39
1.52;-4.36;1.74;10.02;5.12;-34.09
7.95;-2.83;-2.29;-6.86;-6.97;-18.73
3.16;-1.20;-14.37;-0.44;-16.66;-2.61
-8.17;-4.36;-0.65;-2.07;-20.69;13.50
3.16;-3.59;0.98;-2.83;-20.69;10.24
-12.20;3.70;2.61;-2.83;-20.69;15.14
0.65;2.07;3.38;-3.59;-20.69;19.17
-0.11;4.46;-0.65;-10.13;-5.34;16.77
-4.14;-2.83;8.17;-6.10;7.51;22.32
26.46;2.07;7.41;-2.83;22.00;27.99
-2.50;-1.20;19.49;-1.20;-2.94;29.62
-1.74;23.74;8.17;-6.10;-16.66;4.68
-4.14;31.04;0.11;-10.89;-24.72;-2.61
-4.14;2.07;0.11;1.20;-15.03;-13.94
1.52;-1.20;-4.68;6.86;-9.37;-22.00
1.52;-1.96;-6.32;2.83;-11.00;-14.70
-4.14;0.44;-6.32;1.20;12.31;2.18
2.29;1.20;-7.84;-1.20;-6.21;-18.73
3.16;-2.83;-12.74;11.65;26.79;-12.31
1.52;-5.99;-5.44;6.86;30.06;-24.39
1.52;-4.36;-6.32;10.02;23.63;-16.33
0.65;26.24;-3.05;-1.20;19.60;-5.88
6.32;-10.89;-0.65;4.46;5.88;3.05
1.52;3.70;-0.65;2.83;-6.21;17.53
0.65;2.07;4.14;0.44;-13.39;19.17
3.16;2.07;3.38;-2.83;-20.69;19.17
-0.87;2.07;1.74;-2.07;-24.72;17.53
-4.14;1.20;13.07;-3.59;-20.69;19.93
-0.87;3.70;5.01;-5.23;-13.39;17.53
3.16;6.10;23.52;-0.44;-2.94;25.59
-0.87;4.46;11.43;-4.46;5.12;15.14
-0.11;28.64;8.17;-2.07;8.28;2.18
-1.74;6.10;0.11;3.59;13.94;-5.01
-0.11;3.70;2.61;35.07;30.06;-11.43
19.28;0.44;1.74;11.65;26.79;-8.28
3.92;1.20;-0.65;3.59;30.82;-14.70
3.92;-6.86;-3.81;9.26;15.57;-17.97
3.16;-1.20;-15.14;6.86;0.22;-11.43
-0.11;-8.39;-8.71;-6.86;-12.63;-19.49
2.29;-6.86;-8.71;2.83;-24.72;-34.09
2.29;1.20;-4.68;1.96;-45.63;-28.42
3.16;-1.20;-5.44;-29.40;-52.16;-12.31
3.16;1.20;-7.84;6.86;-74.71;0.65
3.16;0.44;-0.65;-2.07;-36.05;19.17
-2.50;6.10;-0.65;-6.10;-20.69;1.42
-4.14;0.44;-0.65;-5.23;2.72;20.80
21.67;2.07;25.16;-6.86;6.75;7.08
5.55;-1.96;3.38;-2.07;13.94;27.22
-1.74;-2.83;10.67;-6.10;26.79;28.86
3.92;2.07;11.43;1.20;29.29;62.62
3.16;3.70;12.20;-0.44;20.36;27.99
0.65;6.10;9.80;2.83;22.76;7.84
-0.11;2.83;2.61;9.26;25.26;11.87
3.16;1.20;1.74;5.99;15.57;-10.67
3.92;2.83;1.74;13.29;30.82;-14.70
3.16;2.07;-0.65;-0.44;38.11;-13.07
-0.87;3.70;-3.05;-1.20;23.63;5.44
0.65;-8.39;-5.44;1.20;5.88;-18.73
3.92;-3.59;-7.84;2.83;-10.24;-15.46
1.52;-4.36;-0.65;7.62;-20.69;-30.82
3.16;3.70;-4.68;3.59;-33.54;-22.00
0.65;3.70;-2.29;-1.20;-44.10;-14.70
17.64;-20.47;-5.44;-14.16;-46.50;-6.64
-0.87;19.82;-0.65;-39.10;-38.44;9.47
-0.87;-2.83;-0.65;-2.07;-20.69;19.93
-2.50;2.83;0.98;2.83;-7.84;8.71
-10.56;2.83;-0.65;-0.44;19.60;19.17
24.83;21.34;1.74;-1.20;-3.81;17.53
1.52;-1.20;4.14;-10.13;0.22;19.17
-4.14;3.70;10.67;-12.52;5.12;27.99
2.29;6.10;9.04;-2.83;7.51;19.93
-0.87;1.20;-11.11;-1.20;14.70;18.30
3.16;24.61;-0.65;-3.59;18.73;-5.88
3.16;-3.59;-0.65;-3.59;17.97;-16.33
-0.11;1.20;-1.42;10.02;17.21;-21.13
33.76;6.86;-2.29;0.44;28.42;-15.46
2.29;1.20;-3.81;11.65;16.33;-17.97
3.16;-5.23;-2.29;6.86;9.91;-13.94
3.16;29.40;-4.68;11.65;23.63;-11.43
3.16;-1.96;-6.32;-14.16;22.00;-23.52
5.55;3.70;-3.81;7.62;32.45;-17.97
-0.87;0.44;-3.05;6.86;23.63;-0.98
-36.37;1.20;0.11;8.39;0.22;2.18
-0.11;-5.99;3.38;0.44;-21.45;-5.01
3.16;1.20;3.38;-2.07;-32.78;19.93
-0.87;2.83;0.11;-10.13;-37.57;26.35
1.52;2.83;3.38;-3.59;-40.08;16.77
3.16;6.10;4.14;-10.13;-35.17;15.14
7.19;-25.37;9.04;-34.30;-32.78;15.90
3.16;-1.20;7.41;-3.59;-21.45;27.22
-2.50;1.20;9.80;-2.83;-21.45;26.35
3.16;2.07;-15.14;-3.59;-20.69;1.42
0.65;5.23;3.38;-2.83;-9.37;-11.43
3.16;2.07;-0.65;-2.07;-2.94;-15.46
3.16;20.58;-0.65;-1.20;4.25;-18.73
3.16;6.10;-3.81;-14.16;5.12;-22.76
1.52;-4.36;-11.87;-3.59;16.33;-23.52
7.19;-10.89;-9.47;6.86;23.63;-14.70
0.65;-2.83;-9.47;8.39;26.03;-18.73
2.29;-2.83;-5.44;5.99;23.63;-23.52
3.16;0.44;-5.44;11.65;22.76;-18.73
2.29;0.44;-3.05;10.89;20.36;-0.22
3.16;3.70;-0.65;11.65;32.45;7.08
-0.87;-1.96;1.74;7.62;30.82;24.83
-36.37;2.83;3.38;1.20;39.75;19.17
-1.74;5.23;3.38;-1.20;-0.54;49.77
1.52;2.07;11.43;-2.07;-5.34;42.47
1.52;6.10;6.64;-1.20;-5.34;27.99
3.16;2.07;-9.47;-6.86;-3.81;27.99
2.29;1.20;1.74;-3.59;-5.34;32.89
-4.90;0.44;7.41;-10.13;-10.24;20.80
-0.87;5.23;0.11;-29.40;-20.69;1.42
1.52;2.07;1.74;-6.86;-23.09;-12.31
0.65;1.20;-0.65;5.99;9.91;-26.03
0.65;-1.20;-7.08;1.20;-19.93;-46.06
0.65;4.46;-2.29;5.23;-17.42;-27.55
14.37;-2.83;-8.71;1.20;-11.87;-30.06
4.68;-1.96;-3.05;-2.83;-15.90;-26.03
3.16;-5.99;-4.68;7.62;-6.21;-28.42
0.65;-2.83;9.04;-0.44;2.72;-43.67
-4.90;-3.59;8.17;-1.20;4.25;-11.43
2.29;-2.83;-0.65;-2.83;5.88;-13.07
1.52;1.20;-1.42;1.96;13.94;3.05
2.29;0.44;0.11;2.83;9.15;9.47
0.65;-1.96;-6.32;-3.59;13.18;43.34
-2.50;0.44;8.17;-1.20;17.97;27.99
-6.53;-1.96;0.11;28.53;1.85;31.25
-4.90;3.70;0.11;1.20;10.78;53.03
1.52;2.83;8.17;1.20;12.31;28.86
-0.87;-14.92;7.41;-0.44;5.12;36.92
1.52;6.86;3.38;1.20;0.22;13.50
-4.14;-23.74;9.04;21.34;-3.81;-0.22
5.55;2.07;3.38;-1.20;-4.57;-10.67
3.16;4.46;0.98;1.20;-15.03;-8.28
4.68;-8.39;-1.42;6.86;-15.03;-23.52
5.55;-2.83;-0.65;2.83;-12.63;-23.52
2.29;-3.59;-4.68;4.46;-6.97;-22.76
-7.41;2.07;-7.84;2.83;5.12;-22.76
-5.77;-2.83;-5.44;1.20;2.72;-25.16
-1.74;-2.83;-4.68;1.20;-0.54;-28.42
-2.50;-5.99;-5.44;4.46;0.22;-23.52
0.65;1.20;-4.68;-1.20;9.15;-5.01
1.52;-2.83;-1.42;-1.20;29.29;3.81
0.65;0.44;-0.65;-6.86;17.97;10.24
3.16;-1.96;3.38;-2.83;5.12;17.53
-1.74;1.20;-0.65;-23.74;-5.34;27.22
3.16;6.10;5.77;-2.07;-9.37;23.20
1.52;1.20;11.43;-2.83;-19.06;26.35
3.16;-1.96;3.38;-0.44;-30.38;24.83
0.65;6.10;8.17;-6.86;-32.02;11.11
-1.74;2.07;13.83;-6.10;-23.96;17.53
-6.53;4.46;-9.47;-3.59;-7.84;2.18
-8.93;6.10;7.41;-1.20;9.91;-10.67
-0.87;13.29;3.38;-1.20;41.38;-13.07
3.16;3.70;-0.65;7.62;38.11;-21.13
0.65;-1.20;-3.05;11.65;28.42;-19.49
-0.11;-27.01;-3.05;13.29;9.15;-15.46
2.29;5.23;-8.71;7.62;-0.54;-22.00
2.29;-1.96;3.38;7.62;1.09;-21.13
3.16;-10.02;-11.87;0.44;-11.87;-31.58
3.16;-5.23;-3.81;7.62;5.88;-18.73
2.29;27.01;-0.65;10.02;17.21;-1.85
1.52;-1.20;0.98;10.02;6.75;3.81
-11.43;6.86;-0.65;17.32;20.36;15.90
-3.38;18.19;3.38;-3.59;-11.87;22.32
-1.74;-1.96;3.38;-12.52;-10.24;13.50
-2.50;-1.96;3.38;-12.52;-27.12;11.11
1.52;-3.59;5.01;-10.13;-37.57;23.96
-1.74;1.20;9.80;-6.86;-45.63;16.77
-1.74;5.23;13.07;-2.83;-32.02;23.20
-4.14;5.23;3.38;-2.83;-20.69;13.50
1.52;6.10;4.14;-3.59;0.22;-0.22
-0.87;6.10;-0.65;-3.59;17.21;-9.91
-12.20;-1.96;-2.29;-1.20;18.73;-22.76
-4.14;0.44;25.92;4.46;15.57;-23.52
1.52;-3.59;-5.44;2.83;2.72;-20.36
-12.96;-1.96;-8.71;2.83;-26.35;-22.76
3.16;-1.20;-9.47;4.46;17.21;-13.07
5.55;31.04;-11.11;10.89;20.36;-17.97
3.92;0.44;-5.44;8.39;26.03;-46.94
2.29;2.07;-4.68;5.99;19.60;-17.97
3.16;1.20;-0.65;6.86;20.36;-1.85
2.29;-1.20;-0.65;4.46;16.33;4.68
-0.87;2.83;4.14;3.59;5.88;23.20
3.16;35.83;0.11;-1.20;4.25;27.22
2.29;2.83;-18.40;5.23;-6.97;23.20
2.29;-1.20;-15.90;-2.07;-18.30;2.18
3.16;4.46;8.17;-3.59;-22.32;25.59
3.16;5.23;6.64;-2.07;-21.45;20.80
0.65;-1.20;4.14;-6.86;-23.09;27.99
3.16;0.44;6.64;-8.49;13.94;11.11
0.65;6.10;7.41;-9.26;-6.97;3.05
-0.87;-1.20;1.74;-6.10;-0.54;-8.28
-15.46;-1.20;1.74;1.20;4.25;-14.70
2.29;2.07;-0.65;3.59;21.24;-27.55
3.16;0.44;-10.35;2.83;13.94;-10.67
-22.65;6.10;-4.68;5.99;9.91;-18.73
0.65;-1.96;-5.44;7.62;10.78;-19.49
3.16;-2.83;-3.81;-6.86;10.78;-12.31
28.86;-1.20;-2.29;0.44;-11.00;-23.52
0.65;-4.36;-9.47;11.65;17.21;-17.97
4.68;-5.23;-29.62;11.65;6.75;-5.01
3.16;-1.20;-2.29;7.62;2.72;1.42
2.29;4.46;-0.65;2.83;0.22;11.87
-6.53;-1.20;0.98;-2.07;-7.84;20.80
1.52;6.10;-0.65;-2.83;-9.37;27.99
3.16;2.07;5.01;-0.44;2.72;26.35
-4.90;6.10;3.38;-0.44;4.25;27.22
-0.87;5.23;-0.65;-1.20;-6.21;19.17
-33.98;3.70;8.17;-2.83;-19.93;28.86
-4.14;1.20;7.41;-17.32;-20.69;17.53
-0.87;1.20;8.17;-0.44;5.12;11.11
0.65;-1.96;5.01;-1.20;12.31;-3.38
-5.77;5.23;3.38;-3.59;15.57;-23.52
-4.14;2.07;-4.68;-1.20;-3.81;-23.52
1.52;-1.20;-4.68;1.20;-7.84;-26.03
2.29;-1.20;-2.29;0.44;-18.30;-27.55
1.52;-2.83;-6.32;-1.20;-15.90;-24.39
-21.02;0.44;-1.42;0.44;-19.06;-23.52
0.65;0.44;-4.68;-2.07;2.72;-34.09
4.68;-1.96;-3.05;26.14;13.94;-23.52
-0.87;-1.20;-2.29;4.46;10.78;-14.70
0.65;-19.71;-0.65;-0.44;-6.97;-3.38
-1.74;-1.96;-0.65;0.44;3.48;25.59
-4.14;-2.83;-0.65;-2.07;9.15;15.90
-0.87;-2.83;-0.65;-5.23;5.12;41.71
3.16;3.70;6.64;-4.46;-20.69;32.89
-8.93;-6.86;5.01;0.44;-28.75;27.99
-0.11;-1.20;7.41;-1.20;-8.60;25.59
3.16;5.23;6.64;-1.20;-13.39;28.86
-20.26;3.70;9.80;-1.20;-20.69;27.22
-0.87;0.44;5.01;0.44;-6.21;7.08
-0.87;0.44;1.74;-1.20;5.12;2.18
2.29;2.07;1.74;-1.20;15.57;-13.07
1.52;3.70;-15.90;10.02;19.60;-18.73
3.16;-3.59;-1.42;11.65;28.42;-23.52
2.29;-8.39;-0.65;10.89;31.69;-12.31
3.16;-1.96;-4.68;11.65;26.79;-17.97
5.55;-4.36;-15.90;6.86;23.63;-16.33
2.29;-2.83;12.20;3.59;17.97;-34.85
-4.14;-18.95;-1.42;4.46;10.78;-26.03
-4.14;-4.36;19.49;2.83;5.12;-13.07
1.52;-1.96;-0.65;1.20;-1.31;-5.88
-0.87;-1.20;-0.65;-1.20;-7.84;7.84
0.65;-1.20;3.38;-2.07;-16.66;15.90
4.68;5.23;4.14;-2.07;-21.45;17.53
-1.74;2.07;-1.42;-5.23;-26.35;18.30
-0.87;2.07;1.74;-10.89;-33.54;20.80
-2.50;3.70;4.14;-6.10;-28.75;13.50
2.29;0.44;10.67;-8.49;-21.45;27.99
-0.11;1.20;2.61;-3.59;-15.03;18.30
-7.41;-22.98;7.41;-26.24;-2.18;2.18
0.65;3.70;5.01;-1.20;5.12;-6.64
-10.56;6.10;0.11;-6.86;5.12;-22.00
0.65;0.44;27.55;1.96;5.12;-18.73
-0.11;-4.36;-3.05;7.62;4.25;-15.46
0.65;-7.62;-8.71;6.86;10.78;-21.13
28.10;10.89;-6.32;19.71;10.78;-15.46
-3.38;-5.23;-11.11;3.59;9.91;-22.76
3.16;-2.83;-7.84;1.20;0.22;-34.09
1.52;2.07;-4.68;-0.44;-2.94;-19.49
-2.50;-4.36;-2.29;-0.44;5.12;-9.91
-0.11;-5.99;-0.65;2.83;9.91;5.44
3.16;2.83;1.74;4.46;10.78;19.17
1.52;2.07;6.64;-2.07;7.51;27.22
-25.05;2.83;0.11;-0.44;-11.00;22.32
0.65;4.46;0.98;-1.20;3.48;27.22
-10.56;-0.33;4.14;-2.07;17.21;23.96
0.65;1.20;8.17;1.20;3.48;-10.67
3.16;2.07;8.17;-5.23;1.09;29.62
-0.87;6.10;10.67;-8.49;-3.81;6.21
-8.17;-1.96;5.01;-1.20;-2.94;1.42
-4.90;2.83;4.14;2.83;1.09;0.65
2.29;-1.20;16.23;2.83;3.48;-17.97
2.29;-7.62;-0.65;5.99;3.48;-21.13
3.92;-3.59;-6.32;-1.20;5.12;-24.39
0.65;1.20;-15.90;-3.59;7.51;-23.52
-4.14;-2.83;-2.29;2.83;-6.21;-25.16
-4.14;-6.86;-7.84;6.86;15.57;-21.13
-0.11;-4.36;-3.05;5.99;12.31;-33.21
3.92;-1.96;-7.84;6.86;-8.60;-24.39
3.92;18.19;-1.42;11.65;-0.54;-8.28
3.16;-4.36;-0.65;-14.16;-15.90;3.05
3.16;0.44;-0.65;-1.20;-26.35;14.27
3.16;2.83;0.98;-39.10;-28.75;23.20
-0.11;-2.83;-0.65;-1.20;-20.69;28.86
-20.26;-1.20;2.61;-2.83;-9.37;27.99
3.16;-1.96;4.14;-2.83;-54.56;27.22
-4.14;5.23;7.41;-39.86;-28.75;19.17
-0.11;2.83;9.04;-9.26;1.09;28.86
-1.74;2.83;6.64;-1.20;22.00;17.53
3.16;2.07;5.01;1.96;33.32;3.05
1.52;4.46;5.01;-1.20;34.85;-9.04
-2.50;1.20;17.86;5.99;17.97;-23.52
-0.87;4.46;-2.29;0.44;2.72;-24.39
0.65;-1.96;-4.68;11.65;-9.37;-23.52
0.65;-1.20;-9.47;37.46;-20.69;-22.76
2.29;-1.96;-2.29;3.59;-29.51;-22.76
-1.74;-5.23;-7.84;-1.20;-23.09;-29.19
-0.87;0.44;-5.44;-2.83;-4.57;-35.61
-21.89;0.44;-5.44;0.44;5.88;-33.21
-14.59;22.98;-8.71;14.05;20.36;-9.91
3.16;-6.86;-1.42;10.02;16.33;3.05
3.16;-7.62;-0.65;3.59;10.78;23.96
-0.11;0.44;0.11;0.44;9.91;27.99
2.29;0.44;1.74;-2.83;17.21;28.86
3.16;4.46;30.82;-3.59;7.51;53.03
8.71;-1.96;8.17;-2.07;23.63;31.25
3.16;3.70;9.04;-2.07;36.48;27.99
-4.14;1.20;12.20;-6.10;32.45;36.05
27.33;6.10;6.64;-2.07;32.45;25.59
15.25;-1.20;5.01;-14.16;5.88;8.71
0.65;27.01;1.74;-0.44;-6.97;0.65
-4.90;-10.89;-0.65;-0.44;-23.09;-22.00
1.52;1.20;-26.46;3.59;-41.60;-34.09
0.65;5.23;-3.05;10.02;-45.63;-35.61
-0.87;2.07;-4.68;8.39;-45.63;-26.03
5.55;0.44;-7.08;-8.49;-23.09;-27.55
3.92;0.44;-4.68;1.96;-19.06;-32.45
2.29;-19.71;-5.44;2.83;-5.34;-35.61
3.92;1.20;-8.71;1.20;12.31;-11.43
3.16;3.70;-3.05;-2.07;16.33;-9.91
-0.87;-19.71;-1.42;1.20;15.57;-0.22
-29.95;-1.20;0.11;-2.07;30.82;16.77
27.33;18.95;5.01;1.96;15.57;13.50
-0.11;3.70;3.38;-1.20;5.12;27.22
-1.74;5.23;0.11;0.44;4.25;27.99
-4.90;-10.89;0.98;-1.20;-16.66;23.20
-7.41;6.10;6.64;10.02;-16.66;24.83
2.29;-7.62;12.20;-5.23;-20.69;30.38
2.29;2.07;17.86;-2.07;-16.66;20.80
2.29;0.44;13.83;-0.44;-7.84;1.42
-0.87;4.46;14.70;11.65;14.70;1.42
-4.14;-2.83;0.11;2.83;5.12;-10.67
1.52;2.07;-2.29;-1.20;-19.93;-19.49
7.19;-1.20;-7.84;-1.20;4.25;-23.52
0.65;-3.59;-20.80;-2.07;7.51;-22.00
1.52;4.46;-19.17;-10.13;13.18;-20.36
0.65;3.70;-12.74;1.20;7.51;-22.76
7.95;2.83;-12.74;-12.52;5.88;-32.45
-2.50;-1.96;-5.44;9.26;5.12;-25.16
3.92;1.20;-8.71;11.65;-8.60;-8.28
3.16;0.44;-3.05;1.20;5.12;2.18
-20.26;4.46;1.74;-5.23;5.12;43.34
7.19;2.07;5.01;-0.44;5.12;23.96
20.80;3.70;5.01;-6.10;-2.18;20.80
-4.90;3.70;9.04;-1.20;0.22;28.86
3.16;6.10;8.17;-1.20;-2.18;30.38
0.65;-1.20;7.41;-3.59;-0.54;27.22
-1.74;4.46;12.20;-27.77;1.09;32.89
-21.02;6.10;8.17;-2.83;-8.60;19.93
-21.02;-10.89;11.43;-4.46;-2.94;2.18
-17.86;4.46;4.14;-1.20;1.09;-13.94
2.29;-19.71;-1.42;-3.59;-2.18;-21.13
-4.14;2.07;-0.65;2.83;-0.54;-27.55
1.52;-9.26;-1.42;-2.07;1.85;-23.52
3.16;-4.36;-6.32;10.89;-0.54;-19.49
3.16;-6.86;-7.84;4.46;-6.21;-49.33
3.16;-6.86;-11.87;8.39;2.72;-14.70
-1.74;2.07;8.17;2.83;-2.94;-27.55
-27.55;2.83;-7.84;5.99;-10.24;-23.52
3.16;-6.86;-3.05;3.59;-2.94;-5.01
0.65;-4.36;-0.65;-2.07;3.48;3.81
0.65;3.70;-0.65;-2.07;0.22;12.74
-0.87;-4.36;-1.42;-6.86;7.51;18.30
1.52;-27.01;0.98;31.80;12.31;22.32
2.29;4.46;1.74;1.96;15.57;23.96
-0.11;-6.86;3.38;-0.44;5.12;28.86
-2.50;-1.20;-12.74;-2.07;-3.81;27.99
0.65;0.44;5.01;-2.83;-9.37;36.92
28.86;0.44;5.77;-3.59;-12.63;19.17
2.29;6.10;9.04;-2.07;-2.18;7.84
2.29;-1.20;3.38;-5.23;-0.54;-8.28
-39.53;-5.99;0.98;-2.83;-6.97;-22.76
4.68;0.44;-5.44;-0.44;-13.39;3.81
-1.74;2.07;0.11;5.23;-8.60;-21.13
4.68;-2.83;-3.05;3.59;4.25;-13.07
3.16;-4.36;-3.81;6.86;-2.94;-22.76
4.68;-2.83;-11.11;10.02;5.12;-10.67
-0.11;-6.86;-10.35;2.83;7.51;-28.42
3.16;-1.20;-8.71;4.46;29.29;-23.52
20.80;10.13;-2.29;-19.71;20.36;-5.01
-0.11;0.44;-0.65;5.99;16.33;7.08
3.16;1.20;0.11;-3.59;22.00;12.74
1.52;2.83;4.14;-0.44;-0.54;19.17
3.16;-3.59;5.01;-14.16;-15.90;19.93
0.65;1.20;4.14;-1.20;-15.90;19.17
0.65;2.07;5.01;4.46;-19.93;13.50
-8.93;6.10;5.01;1.20;-6.21;20.80
-2.50;6.86;10.67;1.20;23.63;27.22
2.29;3.70;12.20;-4.46;26.03;13.50
2.29;6.10;8.17;-2.83;3.48;3.05
2.29;-1.20;2.61;-10.89;-21.45;-12.31
20.04;-35.07;0.11;0.44;-31.15;-23.52
2.29;1.20;-0.65;7.62;-40.84;-22.00
4.68;2.07;-4.68;-12.52;-49.66;-30.82
18.40;-1.20;-5.44;-1.20;-44.87;-26.03
3.16;6.10;-4.68;1.20;-32.78;-22.76
0.65;-5.99;-9.47;-6.10;-6.97;-23.52
24.07;-14.05;-7.84;29.40;34.85;-26.03
6.32;0.44;-4.68;4.46;62.29;-16.33
2.29;-1.20;-2.29;0.44;54.23;-8.28
1.52;3.70;-0.65;1.20;30.82;5.44
2.29;-15.68;0.11;-2.07;10.78;15.90
-4.14;5.23;1.74;-3.59;-8.60;27.99
-23.52;40.73;7.41;-6.86;-20.69;27.99
-2.50;2.07;8.17;-3.59;-24.72;27.99
-8.17;4.46;8.17;-1.20;-20.69;49.77
-4.14;-1.96;3.38;4.46;-19.06;45.74
2.29;1.20;6.64;-1.20;5.12;33.65
1.52;-4.36;7.41;1.20;2.72;18.30
2.29;4.46;30.82;-3.59;10.78;7.08
2.29;4.46;3.38;1.20;17.97;-5.88
3.16;-2.83;1.74;26.14;13.94;-19.49
2.29;1.20;-0.65;1.20;12.31;-23.52
-1.74;2.07;-0.65;-22.22;15.57;-23.52
3.16;-4.36;23.52;2.83;10.78;-23.52
2.29;-6.86;-12.74;6.86;5.12;-21.13
6.32;6.10;-11.87;22.98;5.12;-18.73
3.92;1.20;-0.65;5.99;4.25;-26.03
3.92;-4.36;-9.47;6.86;1.09;-25.16
0.65;-4.36;-1.42;4.46;-6.97;-10.67
24.07;3.70;0.11;2.83;-12.63;-1.85
4.68;4.46;-3.05;-3.59;-16.66;13.50
0.65;2.07;4.14;-13.29;-16.66;20.80
-4.14;-11.65;2.61;-8.49;-12.63;23.96
-0.87;-1.20;5.01;3.59;-15.03;23.20
-4.90;-18.08;8.17;-1.20;-34.41;23.96
-1.74;-2.83;9.80;-2.07;-13.39;20.80
-0.87;-1.20;-16.77;-2.07;-6.97;32.89
3.16;2.07;5.01;-2.07;-3.81;27.99
-24.28;0.44;6.64;37.46;5.12;5.44
-1.74;0.44;1.74;-2.83;7.51;-9.91
-7.41;0.44;-0.65;-1.20;7.51;-17.97
-0.11;-3.59;-5.44;32.56;6.75;-21.13
-1.74;-2.83;8.17;0.44;5.12;-23.52
1.52;-1.20;-9.47;0.44;7.51;-17.97
2.29;-1.20;-14.37;5.23;14.70;-22.76
-14.59;-4.36;-8.71;1.96;23.63;-17.97
-0.11;5.23;-7.84;4.46;25.26;-26.03
2.29;-1.20;-7.84;-2.07;9.15;-23.52
3.16;-1.20;-6.32;1.20;4.25;-22.00
2.29;1.20;4.14;-0.44;-2.94;3.81
2.29;4.46;0.11;1.20;-8.60;13.50
2.29;0.44;4.14;-1.20;-20.69;24.83
-1.74;0.44;-0.65;1.20;-20.69;27.99
-0.87;-1.20;7.41;-1.20;-9.37;26.35
-1.74;46.39;8.17;3.59;-10.24;25.59
0.65;1.20;-6.32;2.83;3.48;15.90
-4.90;7.73;9.04;-1.20;0.22;30.38
-22.65;2.07;10.67;-2.83;-18.30;15.14
0.65;2.07;13.83;-1.20;-9.37;11.11
2.29;1.20;6.64;-0.44;-5.34;-8.28
3.16;2.07;0.98;6.86;-21.45;-22.00
0.65;-5.23;-1.42;0.44;3.48;-24.39
2.29;-1.20;-1.42;8.39;5.12;-23.52
2.29;-7.62;-5.44;0.44;5.12;-22.00
3.16;-2.83;-3.05;1.20;5.12;-19.49
1.52;-4.36;-6.32;5.99;5.12;-18.73
1.52;-1.96;-11.87;4.46;4.25;-32.45
0.65;-1.96;-3.05;4.46;1.09;-22.76
1.52;-1.20;-16.77;3.59;-4.57;-9.91
-1.74;-1.20;-0.65;15.68;9.15;2.18
0.65;2.07;17.10;-0.44;12.31;12.74
-8.93;-1.96;-0.65;1.96;9.91;15.14
0.65;4.46;0.11;-2.07;-6.97;27.99
1.52;2.07;9.04;-2.07;-9.37;27.99
-27.55;-1.96;1.74;-2.07;-17.42;27.99
11.22;3.70;5.01;-3.59;-16.66;25.59
3.16;1.20;7.41;6.86;1.09;35.28
3.16;1.20;7.41;-6.10;2.72;25.59
1.52;-1.96;7.41;-1.20;1.09;2.18
1.52;31.80;3.38;-1.20;13.18;-5.01
-8.17;-34.19;2.61;-0.44;-17.42;-22.76
1.52;2.07;-3.05;2.83;2.72;-49.33
2.29;-2.83;-6.32;2.83;-9.37;-26.79
-0.87;-4.36;-3.05;-2.07;5.12;-22.00
3.16;-2.83;-6.32;1.20;5.12;-22.00
3.16;-6.86;-4.68;2.83;-2.18;-23.52
3.16;-9.26;-5.44;9.26;-7.84;-35.61
-2.50;-2.83;-7.84;4.46;-9.37;-26.79
1.52;0.44;-2.29;1.96;9.91;-10.67
-2.50;2.83;-2.29;1.20;-11.87;3.81
-0.11;-0.33;-0.65;1.96;-8.60;13.50
-0.11;-4.36;-22.43;3.59;-2.18;23.20
2.29;-2.83;1.74;-0.44;9.15;36.05
-0.11;0.44;4.14;19.71;23.63;27.99
-1.74;2.07;5.01;-3.59;26.79;27.99
3.92;6.10;1.74;-0.44;26.03;49.77
-1.74;3.70;11.43;2.83;5.12;13.50
-2.50;0.44;7.41;33.43;-2.94;19.93
-1.74;-1.96;0.98;-29.40;-16.66;2.18
26.46;-2.83;-0.65;11.65;-11.87;-7.41
-4.14;-2.83;0.11;-2.83;-9.37;-22.76
-1.74;4.46;-0.65;-6.10;-2.94;-25.16
2.29;-23.74;-5.44;-4.46;-6.21;-22.76
3.16;-5.23;-5.44;30.17;-18.30;-23.52
1.52;-3.59;-4.68;8.39;-6.21;-23.52
-4.90;-5.23;-1.42;-2.07;-9.37;-23.52
0.65;-1.20;1.74;-2.07;1.09;-34.09
5.55;-5.99;-7.84;-2.07;4.25;-25.16
7.19;-5.99;-0.65;-2.83;5.12;-8.28
0.65;-1.96;-1.42;-4.46;5.12;2.18
-12.20;-1.20;0.98;-4.46;9.91;19.93
3.92;-4.36;-7.84;-1.20;5.12;0.65
3.16;5.23;0.11;1.96;5.12;23.20
-0.87;17.32;1.74;-0.44;10.78;27.99
0.65;2.83;33.21;-2.83;-0.54;27.99
-4.90;6.10;4.14;-5.23;-5.34;26.35
-1.74;2.07;8.17;-1.20;10.78;29.62
-4.14;5.23;9.80;-12.52;13.18;15.90
-4.14;-1.20;10.67;1.96;9.15;2.18
-0.87;3.70;1.74;0.44;-9.37;-15.46
-1.74;1.20;2.61;2.83;-18.30;-22.00
1.52;0.44;-1.42;6.86;-20.69;-23.52
3.16;-2.83;-16.77;10.02;-23.09;-49.33
1.52;4.46;-2.29;2.83;-25.48;-25.16
1.52;-19.71;-5.44;1.96;-24.72;-23.52
3.92;-4.36;-7.84;2.83;-9.37;-22.00
26.46;2.07;-9.47;1.96;0.22;-35.61
0.65;1.20;-11.87;4.46;12.31;-23.52
-5.77;-15.68;-0.65;6.86;13.94;-11.43
3.16;-1.20;-1.42;-3.59;15.57;7.08
0.65;31.80;-0.65;0.44;5.88;16.77
2.29;2.07;1.74;3.59;5.12;23.96
-4.90;19.82;4.14;11.65;17.97;26.35
-4.14;0.44;2.61;0.44;10.78;27.99
1.52;5.23;5.01;-2.83;13.94;23.96
-0.87;-5.99;5.01;-1.20;5.88;27.99
-2.50;1.20;5.01;-14.92;9.15;32.89
2.29;5.23;10.67;11.65;-7.84;20.80
0.65;0.44;7.41;1.20;7.51;7.84
3.16;3.70;5.01;3.59;4.25;-0.22
0.65;2.07;2.61;7.62;-0.54;0.65
3.16;3.70;-0.65;2.83;10.78;-0.98
2.29;-1.96;-3.05;6.86;5.12;-13.94
3.16;-1.20;-2.29;10.02;2.72;-19.49
1.52;-6.86;-9.47;3.59;-6.97;-21.13
1.52;0.44;-3.81;1.96;-8.60;-14.70
3.92;0.44;-11.87;1.96;-11.87;-35.61
3.16;-5.99;-7.08;2.83;-25.48;-23.52
-7.41;-2.83;-3.05;1.20;-36.05;-11.43
0.65;21.34;-0.65;12.41;-32.02;1.42
1.52;-9.26;2.61;-11.65;-15.90;3.05
0.65;0.44;-0.65;-6.10;6.75;12.74
-0.87;4.46;-0.65;-0.44;5.88;15.14
-4.90;2.07;3.38;-1.20;5.12;23.20
1.52;1.20;3.38;-35.07;2.72;16.77
3.16;-25.37;5.01;-6.10;2.72;20.80
1.52;2.83;8.17;-8.49;-0.54;27.22
2.29;-3.59;9.80;-8.49;0.22;7.08
-4.14;2.83;6.64;-0.44;5.12;1.42
-2.50;-4.36;3.38;4.46;17.97;-7.41
-5.77;2.07;1.74;-0.44;5.88;-13.07
1.52;2.07;-0.65;10.89;14.70;-19.49
0.65;1.20;-0.65;10.89;3.48;-17.97
3.16;-1.20;-3.05;13.29;52.60;-10.67
2.29;-1.20;-6.32;9.26;48.57;-15.46
0.65;-5.23;-8.71;4.46;26.79;-8.28
5.55;-4.36;-7.84;5.99;-11.00;-25.16
2.29;-1.20;-3.81;5.99;-27.99;-22.00
0.65;0.44;-3.05;6.86;-39.20;-16.33
-3.38;-2.83;-0.65;-5.23;-46.50;0.65
-4.14;2.07;1.74;-6.10;-44.87;11.11
3.16;1.20;-1.42;-2.07;-32.78;14.27
0.65;3.70;2.61;-27.77;-18.30;14.27
-4.14;1.20;1.74;-2.07;5.12;27.99
-4.14;-6.86;5.01;-5.23;17.21;27.99
-0.87;5.23;9.80;-0.44;22.00;23.20
-2.50;6.10;8.17;-1.20;6.75;27.99
0.65;1.20;13.07;-0.44;20.36;27.99
-2.50;5.23;4.14;-1.20;19.60;10.24
3.92;-1.20;-3.05;1.20;10.78;-6.64
0.65;2.83;1.74;-2.07;16.33;-23.52
2.29;0.44;-2.29;5.23;9.15;-25.16
2.29;3.70;-0.65;-1.20;7.51;-28.42
-0.87;3.70;-5.44;-5.23;9.15;-46.94
1.52;-2.83;-8.71;10.02;-10.24;-26.03
3.16;-1.96;-4.68;3.59;-22.32;-19.49
1.52;-5.23;-5.44;11.65;-32.78;-27.55
3.16;-1.96;-9.47;0.44;-33.54;-22.00
1.52;0.44;-4.68;-2.83;-33.54;-10.67
-4.90;3.70;-0.65;24.50;-10.24;2.18
2.29;2.83;-0.65;1.20;-3.81;22.32
-7.41;17.32;3.38;-6.86;26.79;22.32
2.29;3.70;17.10;-0.44;39.75;27.99
-2.50;-1.20;-4.68;0.44;54.99;52.16
-0.11;-4.36;12.20;1.20;41.38;30.38
2.29;-5.23;12.20;-1.20;13.94;27.99
-0.87;-19.71;7.41;-4.46;-19.93;28.86
-0.87;6.10;24.28;-1.20;-32.78;19.93
1.52;1.20;7.41;-2.07;-35.17;4.68
-0.87;3.70;4.14;-5.23;-20.69;-6.64
-2.50;2.07;-0.65;-5.23;-15.90;-13.07
3.16;-1.96;8.17;-1.20;-12.63;-23.52
38.55;18.19;-2.29;0.44;1.09;-22.00
3.16;-2.83;8.17;-0.44;5.12;-23.52
3.16;-4.36;-4.68;8.39;6.75;-5.01
-14.59;-5.23;-7.84;5.99;17.21;-18.73
3.16;-1.96;-4.68;4.46;15.57;-26.79
2.29;1.20;-4.68;10.89;15.57;-13.07
2.29;-5.23;-1.42;6.86;26.03;-2.61
-0.87;-10.89;-0.65;4.46;16.33;3.81
2.29;0.44;6.64;-2.07;-7.84;16.77
4.68;-5.23;1.74;-8.49;5.12;19.93
-0.11;-2.83;5.01;-9.26;-2.18;19.17
2.29;4.46;21.13;-10.13;-6.97;19.17
2.29;-1.20;5.01;-2.83;-11.00;27.99
0.65;2.83;-14.37;-6.10;-6.97;53.80
0.65;2.07;8.17;-22.22;-19.06;28.86
-2.50;4.46;5.01;0.44;-19.06;13.50
-1.74;-2.83;16.23;-0.44;-15.03;-5.88
-1.74;0.44;1.74;-3.59;-10.24;16.77
-4.14;1.20;-0.65;0.44;-6.97;-22.00
3.16;0.44;-26.46;3.59;-5.34;-25.16
2.29;0.44;-0.65;9.26;17.21;-23.52
3.16;1.20;-3.81;7.62;1.09;7.08
3.92;-1.96;-6.32;6.86;5.12;-22.00
1.52;1.20;-12.74;1.20;5.12;-21.13
2.29;1.20;-35.28;2.83;4.25;-27.55
3.16;-2.83;-2.29;4.46;1.09;-22.76
0.65;-4.36;-1.42;1.20;1.09;-6.64
-0.87;1.20;-0.65;1.20;4.25;1.42
-4.90;4.46;0.11;37.46;-16.66;15.90
2.29;20.58;-0.65;-10.89;5.12;17.53
-4.14;3.70;5.01;-6.86;4.25;27.99
-1.74;1.20;9.80;0.44;12.31;27.99
-0.87;2.07;-12.74;3.59;9.91;28.86
1.52;10.13;8.17;1.20;0.22;29.62
0.65;0.44;11.43;0.44;-6.21;32.02
-0.87;-1.20;9.04;-19.71;-19.06;19.17
3.16;-2.83;9.80;3.59;-5.34;4.68
3.16;1.20;4.14;0.44;-6.21;-0.22
1.52;2.83;1.74;-0.44;-5.34;-13.07
-0.87;6.10;16.23;2.83;2.72;-22.76
-0.11;-5.23;-2.29;0.44;5.12;-23.52
0.65;-5.99;-7.84;0.44;6.75;-23.52
0.65;0.44;-5.44;7.62;13.94;-22.00
2.29;17.32;-8.71;-1.20;5.12;-22.00
0.65;-3.59;-4.68;10.02;5.12;-23.52
4.68;-5.23;-3.05;7.62;23.63;-18.73
3.92;-1.20;-3.05;10.02;43.78;-28.42
3.16;2.07;-0.65;8.39;60.66;12.74
3.16;2.07;17.10;6.86;47.81;23.96
3.92;14.92;6.64;36.59;19.60;23.96
28.86;-6.86;5.01;-2.07;-8.60;27.99
-5.77;1.20;25.92;-1.20;-40.84;44.98
0.65;2.07;4.14;-8.49;-68.28;20.80
1.52;6.10;0.11;-5.23;-89.95;16.77
-8.93;-1.96;3.38;-10.89;-86.79;27.99
-0.87;31.80;9.80;-7.62;-70.68;7.84
3.16;-1.20;1.74;-8.49;-30.38;-5.01
-12.20;2.83;0.11;-10.13;5.12;-15.46
-2.50;0.44;-0.65;1.20;21.24;-25.16
3.16;18.95;-1.42;4.46;28.42;-27.55
0.65;-1.96;-0.65;-10.89;22.76;-26.03
6.32;-24.50;-7.84;8.39;8.28;-24.39
-2.50;-1.96;-8.71;-3.59;5.88;-21.13
-0.87;1.20;-11.87;3.59;9.15;-13.07
3.16;-4.36;-8.71;9.26;15.57;-28.42
-5.77;-6.86;-11.87;-0.44;42.91;-22.76
3.16;-7.62;-0.65;28.53;36.48;-4.25
-7.41;-5.23;-5.44;1.20;13.94;7.84
-4.90;-15.68;0.98;10.02;-9.37;18.30
-1.74;8.49;0.98;-24.61;-20.69;22.32
2.29;-1.20;6.64;6.86;-23.09;22.32
3.16;6.10;5.01;3.59;-13.39;23.96
2.29;6.10;8.17;10.89;-9.37;20.80
-20.26;6.10;5.01;0.44;0.22;19.17
2.29;5.23;7.41;-1.20;2.72;27.22
-31.58;6.10;8.17;-10.13;11.54;20.80
-8.93;4.46;9.04;-11.65;15.57;3.81
0.65;0.44;-0.65;-19.71;13.94;-5.01
-4.14;2.07;0.11;1.20;8.28;-30.82
2.29;1.20;-1.42;-3.59;18.73;-23.52
3.16;0.44;-4.68;2.83;-15.03;-23.52
3.16;-1.20;-7.84;3.59;-16.66;-16.33
2.29;-4.36;-7.84;4.46;-11.00;-13.07
-1.74;-2.83;4.14;4.46;-10.24;-17.97
-24.28;-4.36;-7.84;-2.83;-2.94;-31.58
3.16;-5.99;-3.05;10.02;4.25;-11.43
3.16;-4.36;4.14;4.46;13.18;-10.67
3.16;-2.83;-9.47;-0.44;13.18;-0.98
0.65;-2.83;-0.65;1.20;13.94;11.87
-4.90;5.23;3.38;0.44;6.75;15.90
-0.87;4.46;4.14;-0.44;-18.30;17.53
-0.87;0.44;-3.05;-1.20;4.25;19.17
0.65;-1.20;0.98;-3.59;2.72;27.99
0.65;4.46;20.26;-2.83;-3.81;11.87
-0.87;2.07;9.04;-2.07;-11.87;29.62
-0.11;-2.83;7.41;-8.49;-6.97;20.80
0.65;6.10;10.67;-4.46;-5.34;-9.91
-0.87;5.23;3.38;-1.20;-15.03;-5.88
1.52;-1.96;-1.42;-4.46;5.88;-17.97
3.16;1.20;-2.29;2.83;15.57;-21.13
2.29;-1.20;10.67;6.86;19.60;2.18
-0.87;-2.83;-2.29;0.44;14.70;-17.97
1.52;-39.86;-7.84;7.62;5.88;-15.46
3.16;-4.36;-7.84;0.44;-8.60;-22.00
3.16;-2.83;-8.71;2.83;-19.06;-30.82
2.29;2.07;-8.71;-0.44;4.25;-23.52
1.52;-2.83;-3.05;-0.44;-20.69;-10.67
0.65;5.23;-1.42;-2.07;-19.06;3.81
-4.90;-7.62;1.74;4.46;-10.24;10.24
4.68;2.83;5.01;-10.13;-8.60;24.83
-4.14;0.44;8.17;-4.46;0.22;22.32
-4.90;-1.96;0.98;5.99;1.09;27.99
2.29;-1.20;0.98;-1.20;1.85;23.20
2.29;6.10;8.17;-1.20;-2.18;19.17
-4.90;10.89;5.01;-2.83;8.28;27.99
-33.11;-24.50;9.04;-31.04;5.12;14.27
-0.87;7.73;5.01;-2.07;5.12;-0.22
-1.74;-19.71;1.74;-0.44;5.88;-11.43
-0.11;-4.36;0.11;-1.20;6.75;-15.46
1.52;-1.20;-0.65;10.02;16.33;-20.36
3.16;-5.99;-2.29;9.26;26.79;-22.76
3.16;-4.36;-3.05;9.26;26.79;-12.31
3.16;-5.99;0.98;9.26;16.33;-11.43
1.52;-6.86;-3.81;4.46;4.25;-11.43
0.65;-5.23;-7.84;2.83;-6.97;-25.16
-0.11;-1.96;-1.42;-2.07;-11.87;-22.00
-1.74;6.10;-3.05;-1.20;-6.21;-9.91
-1.74;2.07;-4.68;-1.20;-33.54;2.18
-0.87;-1.20;-0.65;-1.20;-22.32;14.27
-8.17;0.44;0.98;-2.83;-19.93;23.20
3.16;31.04;0.11;0.44;0.22;24.83
2.29;5.23;14.70;-0.44;9.15;23.96
3.16;0.44;17.86;-1.20;13.94;20.80
1.52;5.23;1.74;-0.44;26.03;25.59
0.65;-1.20;7.41;-2.07;32.45;33.65
3.16;6.10;8.17;-5.23;31.69;25.59
0.65;0.44;7.41;-14.16;15.57;4.68
-0.87;-4.36;3.38;-1.20;-6.21;-11.43
1.52;0.44;4.14;-1.20;-20.69;-21.13
1.52;-1.20;-2.29;2.83;-33.54;-24.39
-0.11;-1.20;-4.68;0.44;-43.23;-41.27
3.16;-2.83;-7.84;10.02;-41.60;-30.82
1.52;0.44;-9.47;3.59;-36.81;-23.52
20.04;-5.23;-6.32;10.02;-5.34;-24.39
2.29;-5.99;-8.71;6.86;18.73;-37.24
1.52;-1.20;-3.81;2.83;16.33;-25.16
-0.87;-2.83;-4.68;-5.23;13.94;-24.39
-2.50;-1.96;-2.29;3.59;18.73;2.18
-4.14;-1.20;0.11;0.44;18.73;19.93
-5.77;4.46;3.38;11.65;17.97;27.99
3.16;-27.01;3.38;24.50;17.21;32.02
-4.14;2.07;0.11;-6.86;13.18;27.99
-6.53;1.20;5.01;5.99;7.51;27.99
-0.87;2.07;8.17;-1.20;6.75;27.22
-4.14;6.10;7.41;-6.10;-3.81;27.99
-4.90;7.73;5.01;-11.65;5.12;15.14
-10.56;6.10;1.74;1.20;9.15;-5.01
-0.11;0.44;0.98;-1.20;-0.54;-4.25
-4.14;1.20;0.11;5.99;-11.87;-20.36
11.98;14.92;-0.65;-6.10;-20.69;-23.52
-16.99;-2.83;-5.44;9.26;-20.69;-25.16
3.16;3.70;-4.68;11.65;-5.34;-23.52
3.92;1.20;-6.32;10.02;-0.54;-20.36
-8.17;1.20;-3.05;8.39;5.12;-19.49
1.52;4.46;-4.68;3.59;17.21;-29.19
2.29;11.76;-11.11;-2.07;18.73;-22.00
3.16;-6.86;-3.05;-8.49;13.18;-10.67
1.52;1.20;-4.68;-5.23;-6.21;2.18
-0.87;-1.96;29.95;-5.23;-19.06;33.65
3.16;2.07;3.38;-3.59;-19.93;18.30
-18.62;3.70;5.01;-6.10;-20.69;23.20
-0.87;3.70;9.80;-2.83;-29.51;23.96
-1.74;3.70;1.74;-2.07;-38.44;25.59
-0.87;-1.96;6.64;-1.20;-20.69;19.17
0.65;2.07;7.41;-6.10;0.22;25.59
-1.74;2.07;-3.05;-6.86;5.88;16.77
6.32;8.49;5.01;-2.07;18.73;2.18
2.29;2.83;5.01;1.20;26.79;-1.85
3.92;2.83;1.74;3.59;30.06;-22.76
-22.65;7.73;0.11;0.44;41.38;-21.13
3.16;6.10;-24.83;11.65;39.75;2.18
3.16;-14.05;-2.29;-1.20;20.36;-22.76
3.16;4.46;-22.43;6.86;0.22;-14.70
-0.87;-1.20;-7.84;7.62;1.09;-13.07
1.52;-4.36;-14.37;9.26;-15.03;-26.03
3.16;-3.59;-13.50;9.26;-31.15;-21.13
3.16;-5.99;-2.29;-2.07;-36.05;-37.24
0.65;1.20;0.11;0.44;-32.02;3.05
-0.87;-22.11;-0.65;0.44;-21.45;7.08
-5.77;1.20;-4.68;-2.83;-8.60;14.27
-4.90;5.23;0.11;-1.20;5.88;22.32
-0.87;2.83;2.61;-2.07;13.18;27.22
0.65;-14.92;5.01;-1.20;10.78;27.99
0.65;6.10;7.41;-0.44;28.42;27.99
8.71;2.07;7.41;-2.07;18.73;28.86
-0.87;5.23;6.64;-0.44;20.36;23.96
-4.14;5.23;24.28;-5.23;17.21;2.18
-4.90;1.20;3.38;0.44;9.15;-1.85
3.16;6.10;0.98;4.46;3.48;-11.43
6.32;-26.14;-0.65;1.20;0.22;-17.97
-4.14;-1.20;-2.29;4.46;-3.81;-21.13
3.16;-5.99;-7.84;37.46;-20.69;-22.00
0.65;-5.23;-3.81;3.59;-8.60;-23.52
0.65;-1.20;-6.32;7.62;-5.34;-17.97
2.29;-1.20;-30.49;6.86;-2.18;-34.85
3.16;-5.23;-11.87;6.86;3.48;-6.64
-29.95;-5.23;-7.84;-2.07;2.72;-13.07
3.16;-1.20;-4.68;1.20;26.03;0.65
3.16;-1.96;0.11;-14.16;30.82;13.50
2.29;1.20;3.38;-1.20;23.63;19.17
3.16;-2.83;6.64;1.96;5.12;19.93
-5.77;-6.86;7.41;-0.44;-6.97;27.22
11.98;2.07;7.41;-0.44;-13.39;19.17
-1.74;1.20;1.74;-5.23;-25.48;19.17
-1.74;4.46;6.64;-2.83;-36.81;27.99
-5.77;-14.05;5.01;-29.40;-34.41;14.27
-2.50;1.20;8.17;5.99;-20.69;3.81
-4.14;22.98;3.38;1.20;5.12;-2.61
-0.87;-1.20;-4.68;4.46;5.12;-11.43
3.16;3.70;-0.65;0.44;5.12;-23.52
1.52;0.44;-7.84;-2.83;3.48;-24.39
1.52;1.20;-5.44;-1.20;-8.60;-22.76
-0.87;-3.59;-9.47;-3.59;22.76;-21.13
-4.14;-7.62;-9.47;-1.20;4.25;-15.46
-4.90;-2.83;-11.87;1.20;5.12;-31.58
-5.77;-2.83;4.14;2.83;13.94;-23.52
-4.14;0.44;-4.68;6.86;4.25;-13.94
-4.14;-1.96;-24.83;1.20;5.12;-0.98
5.55;-5.99;-12.74;1.20;5.12;11.11
27.33;6.10;1.74;-1.20;22.00;19.17
-10.56;-3.59;5.01;42.25;1.85;24.83
0.65;4.46;6.64;1.20;-5.34;22.32
3.16;4.46;23.52;2.83;-6.97;27.22
3.16;3.70;11.43;0.44;-8.60;27.99
-2.50;-1.20;12.20;-0.44;-2.94;30.38
-4.90;6.10;7.41;1.20;-2.18;25.59
-7.41;1.20;5.01;3.59;-0.54;4.68
0.65;0.44;-3.05;0.44;-2.18;-19.49
-6.53;6.10;-0.65;-2.83;-4.57;-5.01
-0.11;3.70;-3.05;-0.44;-2.18;-20.36
36.92;2.07;-5.44;10.02;5.12;-23.52
-1.74;1.20;-4.68;4.46;9.91;-11.43
2.29;1.20;-8.71;9.26;9.91;-49.33
20.04;-4.36;-9.47;32.56;5.88;-19.49
-0.11;-10.02;-5.44;2.83;13.18;-29.19
3.16;1.20;-1.42;-4.46;17.21;-18.73
2.29;-4.36;-29.62;-1.20;17.97;-11.43
-4.14;0.44;-3.81;0.44;13.18;-19.49
-2.50;-1.96;0.11;9.26;8.28;36.05
-4.14;-26.14;-0.65;-0.44;10.78;23.20
-5.77;-1.20;-8.71;-5.23;22.76;28.86
-1.74;3.70;7.41;-9.26;14.70;27.99
-12.20;-1.20;5.01;-3.59;14.70;26.35
0.65;6.86;9.80;0.44;-19.06;15.90
-10.56;0.44;5.01;-14.16;-54.56;28.86
-4.14;1.20;12.20;-11.65;-44.87;16.77
1.52;-1.20;6.64;-2.83;-47.26;2.18
3.16;1.20;29.95;-4.46;-47.26;-9.91
4.68;-1.20;-4.68;-1.20;-27.12;-18.73
3.16;2.07;-0.65;6.86;2.72;-24.39
-0.11;-5.23;-10.35;9.26;18.73;6.21
4.68;-1.20;-7.84;11.65;17.21;-19.49
-0.87;3.70;-0.65;11.65;20.36;-25.16
3.16;-5.99;-6.32;7.62;4.25;-21.13
0.65;3.70;-7.84;2.83;5.12;-29.19
1.52;-1.20;-7.84;-6.10;1.85;-22.00
-0.87;-1.20;-3.05;-3.59;13.94;-10.67
2.29;-14.05;-6.32;0.44;-9.37;3.81
-9.80;-7.62;-0.65;-2.07;5.12;18.30
-23.52;-3.59;-0.65;4.46;13.18;19.17
-1.74;-1.20;1.74;-6.10;5.12;25.59
3.16;1.20;4.14;-10.13;9.91;28.86
-0.87;6.10;4.14;-3.59;5.88;27.99
3.16;4.46;9.04;-2.07;5.12;35.28
-5.77;2.07;10.67;0.44;2.72;30.38
-4.90;5.23;7.41;-2.83;4.25;27.99
-7.41;-1.20;3.38;-1.20;5.12;4.68
0.65;1.20;1.74;-2.07;16.33;-0.22
-4.90;4.46;0.98;0.44;31.69;-12.31
0.65;3.70;0.11;10.02;29.29;-42.04
1.52;6.10;-2.29;4.46;7.51;-23.52
3.16;-1.20;-12.74;2.83;-0.54;-19.49
3.16;-5.23;-6.32;4.46;14.70;-15.46
1.52;0.44;-7.84;9.26;9.91;-19.49
1.52;0.44;-9.47;6.86;-5.34;-34.09
0.65;-1.96;-3.05;6.86;-28.75;-23.52
0.65;-1.20;-15.14;1.96;-38.44;-13.07
3.16;2.83;-0.65;3.59;-35.17;-2.61
0.65;2.07;-0.65;-1.20;-32.78;-13.07
2.29;-1.20;0.98;-5.23;-22.32;43.34
1.52;6.10;0.98;-1.20;-2.18;23.20
-4.90;-4.36;6.64;-1.20;9.15;23.96
-6.53;13.29;2.61;-0.44;18.73;19.93
1.52;-1.20;-2.29;-1.20;18.73;19.17
-2.50;2.07;-14.37;-9.26;-2.94;28.86
2.29;6.10;11.43;10.89;-15.03;15.90
-4.90;1.20;13.07;-2.83;-10.24;1.42
-0.87;6.86;22.76;-8.49;-8.60;-9.91
3.16;5.23;-0.65;-13.29;-2.18;-19.49
-1.74;-2.83;-5.44;-1.20;5.88;-26.03
3.16;-1.96;-1.42;1.20;12.31;-18.73
40.18;-2.83;-7.84;4.46;20.36;-19.49
0.65;-1.20;-8.71;7.62;17.97;-17.97
-0.87;-3.59;-4.68;9.26;26.79;-18.73
3.16;1.20;-6.32;1.20;17.97;-30.82
0.65;1.20;-9.47;12.41;1.09;-22.00
-1.74;-1.96;8.17;3.59;-18.30;-0.22
-0.87;-1.20;-1.42;-0.44;-24.72;2.18
3.16;-27.01;-0.65;-0.44;-26.35;4.68
-8.17;-2.83;-4.68;0.44;-21.45;17.53
-0.87;-1.20;5.01;-0.44;-17.42;20.80
-0.11;4.46;5.01;-1.20;-11.87;27.99
-0.11;2.07;3.38;-3.59;-16.66;28.86
0.65;-2.83;5.01;4.46;12.31;23.96
37.79;6.10;2.61;-10.13;20.36;39.31
-4.14;3.70;9.04;4.46;41.38;20.80
3.16;0.44;6.64;-1.20;31.69;15.90
-4.90;-1.20;-0.65;-6.86;29.29;-2.61
-0.87;2.07;11.43;-2.83;5.12;-16.33
-1.74;-1.96;-1.42;-2.83;-11.87;-26.79
-1.74;-4.36;-6.32;-1.20;-53.69;-23.52
8.71;0.44;-8.71;3.59;-45.63;-26.03
-0.11;2.07;-6.32;1.96;-54.56;-23.52
20.80;2.07;-5.44;-2.83;-46.50;-25.16
3.16;-5.99;-5.44;4.46;-20.69;-43.67
3.16;4.46;-4.68;9.26;-16.66;-25.16
-0.11;-1.20;-0.65;7.62;4.25;-17.97
-4.14;-4.36;-0.65;2.83;1.09;-2.61
0.65;-4.36;0.98;-1.20;20.36;7.08
0.65;1.20;3.38;-2.83;18.73;17.53
-1.74;-2.83;3.38;-1.20;22.00;44.98
-4.90;-1.96;6.64;-2.83;23.63;32.02
0.65;2.07;8.17;1.20;20.36;33.65
-0.87;2.83;8.17;-1.20;17.21;24.83
0.65;6.10;1.74;2.83;13.94;36.05
3.16;6.10;-19.93;2.83;12.31;27.99
-36.37;2.07;7.41;-1.20;15.57;7.08
3.92;-0.33;-0.65;-3.59;13.18;1.42
0.65;2.07;-1.42;-1.20;13.18;-13.07
2.29;-5.99;-1.42;-18.95;16.33;-23.52
3.16;2.83;-4.68;-8.49;-8.60;-23.52
-0.87;0.44;-3.05;-3.59;-19.06;-27.55
3.16;-5.23;-3.05;-8.49;-20.69;-50.09
-18.62;-1.96;-6.32;-1.20;-20.69;-23.52
-2.50;1.20;-9.47;5.99;-15.03;-41.27
0.65;-4.36;-6.32;-12.52;-6.21;-26.03
-4.90;1.20;-1.42;-8.49;-19.93;-17.97
-0.87;-2.83;-2.29;4.46;-24.72;-0.98
1.52;3.70;-0.65;-7.62;-40.84;9.47
3.16;-1.96;3.38;-13.29;-34.41;23.20
3.16;-2.83;4.14;-1.20;-19.93;23.96
-2.50;1.20;2.61;-1.20;2.72;27.99
0.65;-1.96;3.38;-23.74;14.70;30.38
1.52;2.07;9.80;-3.59;30.82;27.99
11.98;1.20;5.01;-3.59;36.48;32.02
-4.14;6.10;17.86;-0.44;35.72;25.59
-1.74;6.10;6.64;2.83;53.47;6.21
-2.50;4.46;1.74;-9.26;41.38;-0.22
4.68;3.70;0.11;5.23;17.97;-15.46
-13.83;43.89;-0.65;11.65;-5.34;-21.13
3.16;-32.56;-3.81;-21.34;-23.96;-21.13
3.16;-1.20;-4.68;1.20;-25.48;-19.49
3.16;-1.20;-1.42;20.47;-40.84;-22.76
36.15;-5.99;-7.84;2.83;-44.10;-23.52
-1.74;0.44;-13.50;-2.83;-40.84;-37.24
-0.87;-4.36;-8.71;-1.20;-19.93;-26.03
-8.17;-1.96;-6.32;-0.44;-2.94;-7.41
2.29;-10.89;-3.05;-0.44;19.60;-0.22
-0.87;1.20;-0.65;27.01;26.79;9.47
0.65;-2.83;3.38;1.96;22.76;45.74
-0.87;0.44;4.14;0.44;18.73;21.56
0.65;-1.96;2.61;-1.20;0.22;27.22
2.29;-4.36;1.74;-1.20;-21.45;27.99
0.65;3.70;4.14;-1.20;0.22;27.99
2.29;-0.33;10.67;-10.89;4.25;26.35
-5.77;2.07;6.64;-2.83;-4.57;20.80
-4.90;-5.23;2.61;-1.20;4.25;4.68
0.65;4.46;11.43;-2.07;5.12;-0.22
0.65;2.07;0.11;1.20;2.72;-14.70
28.86;2.07;-0.65;13.29;1.09;-22.76
-0.11;-0.33;-0.65;2.83;5.12;-27.55
3.16;-1.20;-4.68;3.59;10.78;-13.07
23.30;-2.83;-3.81;2.83;5.12;-18.73
1.52;1.20;-3.05;6.86;5.12;-19.49
-0.87;6.10;-7.84;3.59;6.75;-30.82
1.52;-2.83;13.83;3.59;6.75;-19.49
3.16;34.30;-1.42;4.46;16.33;-5.88
3.16;2.07;3.38;4.46;13.18;-0.22
2.29;4.46;-0.65;1.20;10.78;9.47
1.52;5.23;2.61;-2.07;30.82;19.93
0.65;6.10;3.38;-2.07;26.03;27.99
24.83;28.64;7.41;-13.29;4.25;23.20
-2.50;29.40;9.04;21.34;-24.72;20.80
1.52;6.10;8.17;-8.49;-41.60;17.53
2.29;6.10;3.38;-9.26;-32.78;23.20
-0.87;27.77;5.01;-8.49;-59.35;12.74
-0.87;2.83;-0.65;-3.59;-60.98;-5.88
-0.87;14.92;2.61;-11.65;-65.01;-9.04
2.29;2.83;1.74;-12.52;-37.57;-21.13
1.52;0.44;12.20;3.59;5.12;-25.16
1.52;-0.33;-3.05;3.59;30.82;-19.49
-28.31;-19.71;-5.44;4.46;48.57;-17.97
-2.50;-5.23;-9.47;1.20;45.41;-14.70
2.29;-1.20;-5.44;2.83;34.09;-10.67
2.29;-27.77;-1.42;2.83;26.03;-23.52
-25.05;-1.96;-11.87;-5.23;13.94;-22.76
-4.14;-1.96;-1.42;-0.44;-3.81;-8.28
0.65;2.07;-14.37;-2.83;-7.84;-0.22
4.68;3.70;-0.65;-1.20;-13.39;7.84
1.52;6.10;0.11;-2.07;-19.93;22.32
3.16;-1.96;4.14;-1.20;-20.69;16.77
-2.50;-2.83;5.77;1.20;-12.63;19.17
-0.87;6.10;11.43;6.86;-2.18;19.93
-1.74;5.23;25.92;5.23;1.09;29.62
0.65;3.70;33.98;0.44;6.75;26.35
-2.50;-2.83;11.43;-1.20;20.36;26.35
-1.74;6.10;3.38;-8.49;28.42;-3.38
3.16;0.44;3.38;-2.07;30.06;-0.22
3.92;4.46;-18.40;-3.59;19.60;-30.82
3.16;2.83;-0.65;0.44;7.51;-13.94
4.68;6.10;-2.29;4.46;5.12;-27.55
-0.11;-1.20;-4.68;11.65;1.85;-13.07
-0.87;3.70;-15.14;10.02;0.22;-22.76
-0.87;-1.96;-4.68;5.99;-0.54;-19.49
3.16;-4.36;7.41;2.83;-3.81;-32.45
0.65;0.44;-4.68;14.05;-4.57;-26.03
2.29;-1.20;-3.05;12.41;-13.39;-23.52
3.16;18.19;-5.44;3.59;-20.69;-2.61
-34.74;-1.20;-1.42;1.96;-16.66;4.68
-2.50;2.07;-7.84;-2.07;-15.03;16.77
8.71;0.44;0.11;-8.49;-11.87;22.32
1.52;-5.99;3.38;-1.20;-6.21;24.83
3.16;-1.96;5.01;-9.26;-6.97;23.20
-1.74;2.83;-2.29;-8.49;-5.34;23.96
-0.11;-38.22;10.67;-5.23;-6.97;28.86
-0.87;2.07;33.98;-8.49;-6.21;29.62
-1.74;-1.96;5.01;-5.23;-6.97;3.05
1.52;-2.83;-0.65;2.83;-2.18;-1.85
-1.74;2.07;-1.42;2.83;-3.81;-11.43
-4.90;-5.23;-20.80;0.44;0.22;-8.28
-1.74;-5.99;-2.29;8.39;0.22;-23.52
2.29;-5.99;-9.47;1.20;5.12;-36.48
3.16;-5.23;-9.47;5.99;12.31;-22.00
3.92;6.10;-2.29;4.46;14.70;-17.97
1.52;-4.36;7.41;5.99;5.88;-31.58
4.68;-6.86;-1.42;-0.44;22.00;-24.39
-29.95;-7.62;-0.65;10.02;32.45;-8.28
0.65;-1.96;-1.42;-1.20;17.97;2.18
0.65;2.07;0.11;9.26;-2.18;7.08
-10.56;0.44;7.41;-0.44;1.09;19.17
2.29;4.46;7.41;2.83;-2.18;16.77
-1.74;-1.20;5.01;-0.44;-10.24;20.80
-4.14;-1.20;-10.35;-1.20;-25.48;22.32
2.29;4.46;8.17;-4.46;-32.78;17.53
-1.74;-1.20;11.43;-6.10;-46.50;29.62
-8.17;0.44;11.43;-10.13;-38.44;19.93
-4.14;1.20;6.64;-1.20;-31.15;3.81
-4.14;2.07;7.41;-6.86;-12.63;-9.04
-14.59;8.49;-0.65;-8.49;2.72;-19.49
3.16;1.20;-0.65;-4.46;-2.94;-24.39
-4.90;-1.96;-1.42;-1.20;1.09;-17.97
0.65;1.20;-4.68;2.83;2.72;-21.13
-0.87;-4.36;8.17;10.02;7.51;-20.36
3.92;0.44;-6.32;10.02;13.18;-22.00
-0.87;-5.23;-4.68;10.89;22.00;-23.52
0.65;1.20;-11.87;6.86;22.00;-22.76
1.52;10.13;-3.05;1.20;18.73;-9.91
24.07;-1.96;-1.42;1.20;7.51;-6.64
20.04;2.07;0.11;0.44;9.15;36.05
-0.87;13.29;4.14;-18.95;5.88;16.77
-8.17;5.23;7.41;-2.83;3.48;19.93
3.16;2.07;3.38;-6.10;-16.66;23.20
0.65;6.10;1.74;1.20;5.12;23.96
-4.14;1.20;6.64;-5.23;2.72;25.59
-1.74;14.92;9.04;22.98;-0.54;30.38
-4.14;0.44;8.17;-1.20;2.72;25.59
1.52;6.10;6.64;-1.20;4.25;9.47
-4.14;6.10;5.01;-0.44;9.15;1.42
2.29;-1.20;0.11;3.59;13.18;-13.07
3.16;-1.96;-0.65;2.83;16.33;-18.73
-4.14;-2.83;-2.29;4.46;12.31;-22.00
3.16;-22.11;-4.68;10.02;3.48;-18.73
-1.74;-2.83;-3.05;-10.89;-7.84;-14.70
3.16;-4.36;-7.84;1.20;-13.39;-21.13
2.29;-1.20;12.20;1.96;-15.90;-36.48
2.29;2.83;-2.29;-8.49;-20.69;-23.52
1.52;1.20;-1.42;1.96;-15.90;-21.13
2.29;-1.20;-0.65;0.44;-8.60;-9.91
-4.90;-0.33;-3.05;8.39;4.25;11.87
2.29;2.07;1.74;9.26;12.31;20.80
2.29;2.07;0.98;-3.59;0.22;23.20
-2.50;5.23;5.01;-27.77;-11.00;27.22
2.29;3.70;4.14;-3.59;-10.24;27.22
3.16;2.07;5.01;-3.59;-10.24;24.83
-0.11;3.70;7.41;-6.10;-6.97;17.53
-0.87;-6.86;4.14;-9.26;2.72;15.90
-0.87;4.46;10.67;3.59;7.51;2.18
0.65;-28.53;4.14;17.32;5.12;-9.91
0.65;-1.20;-10.35;-2.83;5.12;-19.49
1.52;2.07;-3.05;2.83;5.12;-19.49
3.92;6.10;-0.65;2.83;7.51;-23.52
-2.50;-10.02;-7.84;7.62;6.75;-21.13
4.68;3.70;-4.68;9.26;13.94;-22.00
-2.50;-2.83;-6.32;2.83;12.31;-19.49
3.92;-14.92;-5.44;1.20;14.70;-23.52
3.16;-6.86;-26.46;5.99;28.42;-21.13
1.52;-0.33;-4.68;3.59;17.97;-0.22
4.68;1.20;-0.65;2.83;-3.81;3.81
3.16;1.20;0.98;0.44;-20.69;7.08
-1.74;3.70;5.01;0.44;-23.96;2.18
3.16;24.61;3.38;16.44;-31.15;19.93
1.52;4.46;0.11;-2.83;-39.20;23.96
2.29;-5.23;10.67;-1.20;-41.60;18.30
-2.50;-19.71;8.17;-2.07;-20.69;23.20
-5.77;2.83;9.80;-0.44;10.78;30.38
-2.50;5.23;10.67;-1.20;46.17;22.32
-0.11;2.83;9.80;4.46;56.63;15.90
-6.53;4.46;7.41;0.44;50.97;0.65
-4.14;2.07;-0.65;-3.59;18.73;6.21
-0.87;3.70;-0.65;-11.65;5.12;-17.10
0.65;-1.96;-3.81;-5.23;-7.84;-23.52
3.16;2.07;-8.71;-11.65;-8.60;-26.03
3.16;-5.99;-8.71;-5.23;-11.87;-23.52
-2.50;-4.36;-9.47;-2.83;-6.97;-23.52
7.19;-1.96;-14.37;31.80;-20.69;-34.09
-23.52;-5.99;-11.11;-2.83;-20.69;-28.42
-2.50;-1.20;12.20;4.46;-20.69;-5.01
-8.93;-1.20;-2.29;7.62;-24.72;-5.01
-4.14;-6.86;-0.65;11.65;-31.15;7.08
-0.87;2.07;2.61;-0.44;-34.41;18.30
-25.92;2.07;-0.65;-3.59;-27.99;25.59
-1.74;4.46;11.43;-6.10;-9.37;26.35
28.86;5.23;8.17;-3.59;13.94;45.74
-4.14;-8.39;-3.05;-2.83;32.45;27.99
2.29;5.23;6.64;1.20;41.38;32.02
-5.77;4.46;13.07;11.65;38.88;27.99
3.92;5.23;10.67;1.20;27.66;30.38
-4.14;5.23;5.77;-0.44;22.76;-0.22
2.29;-4.36;-3.05;5.99;17.97;-17.97
3.16;1.20;-0.65;4.46;8.28;-18.73
1.52;-1.96;-2.29;6.86;6.75;-14.70
3.16;-1.20;-6.32;10.02;23.63;-17.97
-2.50;-5.23;-15.90;6.86;0.22;-17.97
7.19;-3.59;-7.08;11.65;-12.63;-23.52
1.52;-5.23;-3.81;1.20;-20.69;-35.61
-1.74;24.61;-4.68;-0.44;-19.06;-22.00
1.52;1.20;-0.65;0.44;-7.84;-11.43
26.46;-1.96;0.11;29.40;3.48;0.65
-1.74;2.83;2.61;-2.07;1.09;10.24
0.65;-1.96;4.14;1.20;5.12;17.53
2.29;-1.20;0.11;-9.26;-26.35;15.90
-0.87;2.07;0.11;-13.29;-23.09;24.83
3.92;0.44;5.01;-6.10;-19.93;32.02
-2.50;2.07;0.98;-5.23;-32.78;24.83
0.65;1.20;9.80;-6.10;2.72;27.22
-2.50;-1.96;5.01;-10.13;6.75;11.11
0.65;-4.36;8.17;11.65;13.18;3.05
2.29;14.92;3.38;-22.98;5.12;-10.67
0.65;3.70;3.38;7.62;12.31;-15.46
21.67;4.46;-2.29;0.44;3.48;-21.13
2.29;-4.36;-1.42;11.65;6.75;-28.42
3.16;-6.86;-0.65;11.65;9.91;-45.30
3.16;-1.20;-4.68;2.83;10.78;2.18
0.65;4.46;-4.68;7.62;5.88;-20.36
3.16;-2.83;-7.84;2.83;1.09;-30.06
-1.74;1.20;-5.44;2.83;-4.57;-23.52
2.29;-2.83;-4.68;3.59;-6.97;-10.67
3.16;-28.53;-1.42;0.44;-7.84;3.81
7.95;2.07;0.11;-1.20;-11.87;12.74
3.16;-0.33;5.01;-3.59;-10.24;22.32
-1.74;6.10;5.01;2.83;-5.34;23.20
1.52;6.10;5.01;-2.07;-20.69;25.59
-0.87;2.07;3.38;-0.44;10.78;27.99
0.65;13.29;9.80;-0.44;7.51;23.20
-5.77;6.10;17.86;-2.07;10.78;44.98
-4.14;1.20;3.38;-0.44;30.82;27.22
3.16;-5.23;4.14;17.32;17.97;3.05
3.16;3.70;3.38;-2.83;24.39;-0.22
-1.74;-1.20;-0.65;1.96;28.42;-22.00
2.29;2.07;-3.05;1.20;12.31;-24.39
3.16;1.20;-20.80;2.83;-6.97;-23.52
2.29;0.44;-3.81;6.86;-32.02;-23.52
-0.87;-4.36;-5.44;13.29;-40.84;-25.16
1.52;-2.83;-7.08;2.83;-35.17;-24.39
-8.93;-5.23;-1.42;-0.44;-44.10;-38.88
2.29;-4.36;-1.42;0.44;-42.47;-56.63
-0.11;27.01;-1.42;-25.37;-23.96;-14.70
3.16;-4.36;-0.65;1.20;-16.66;-2.61
3.92;-4.36;-3.81;3.59;1.09;13.50
-4.90;5.23;5.01;-1.20;-4.57;23.96
-2.50;-1.20;1.74;-2.07;30.82;28.86
16.77;5.23;5.01;1.96;29.29;27.22
-0.87;-19.71;4.14;-0.44;22.76;27.99
2.29;-14.05;5.01;-2.07;47.81;27.22
2.29;3.70;20.26;1.20;23.63;32.02
-2.50;0.44;8.17;1.20;31.69;24.83
-0.11;4.46;6.64;-0.44;22.00;4.68
3.16;4.46;2.61;-25.37;17.21;1.42
2.29;6.10;0.98;11.65;5.12;-11.43
0.65;-6.86;-1.42;7.62;-11.87;-21.13
3.16;22.98;-7.84;-19.71;-15.03;-21.13
-0.87;-0.33;-0.65;4.46;-12.63;-21.13
3.16;-18.95;-7.84;1.20;-7.84;-19.49
3.16;-1.20;-7.84;10.89;-3.81;-13.94
-36.37;-4.36;-10.35;9.26;13.94;-31.58
2.29;-4.36;-7.84;-1.20;9.91;-24.39
1.52;-5.99;-3.05;3.59;0.22;-18.73
2.29;17.32;-0.65;-1.20;-15.03;0.65
-0.87;3.70;-2.29;2.83;-16.66;14.27
0.65;0.44;0.11;9.26;-13.39;27.99
1.52;2.07;3.38;3.59;-11.87;15.14
2.29;0.44;5.01;1.20;-18.30;17.53
-22.65;0.44;3.38;17.32;-22.32;23.96
3.16;2.07;9.80;-6.86;-12.63;23.96
-0.87;1.20;9.04;8.39;4.25;28.86
0.65;-1.96;5.01;-14.16;30.06;16.77
2.29;3.70;9.80;-10.13;28.42;2.18
-0.87;0.44;0.98;-6.10;9.91;-9.04
2.29;2.07;-0.65;-10.13;-19.06;-19.49
1.52;2.07;-2.29;27.01;-27.99;-25.16
3.92;-2.83;-4.68;5.99;-34.41;-26.79
0.65;-17.32;-4.68;7.62;-44.10;-23.52
24.83;-4.36;-11.11;11.65;-23.09;-21.13
3.16;2.07;-3.05;10.02;-7.84;-18.73
3.16;-16.44;-4.68;11.65;6.75;-30.82
3.16;2.07;-3.05;4.46;18.73;-21.13
2.29;-4.36;-1.42;1.20;29.29;-2.61
1.52;2.07;-3.81;4.46;30.82;11.87
2.29;4.46;7.41;0.44;22.00;12.74
-21.89;6.10;-0.65;-9.26;15.57;25.59
2.29;-2.83;6.64;-0.44;9.91;29.62
-3.38;5.23;5.01;-14.16;9.91;27.99
39.42;4.46;-0.65;-5.23;5.12;23.96
0.65;4.46;8.17;-3.59;5.12;25.59
-2.50;5.23;11.43;-3.59;4.25;33.65
-4.90;6.10;11.43;-2.07;-2.94;20.80
37.79;18.19;7.41;-2.83;-6.97;9.47
-10.56;35.07;1.74;19.71;5.12;-1.85
-30.71;6.10;1.74;0.44;-11.87;-14.70
3.16;1.20;-1.42;2.83;-15.90;-23.52
-1.74;-1.20;-2.29;-6.10;-6.21;-18.73
3.16;-2.83;-0.65;8.39;5.12;-23.52
-1.74;16.55;-4.68;9.26;7.51;-19.49
1.52;-5.99;-4.68;6.86;16.33;-23.52
1.52;-5.99;-10.35;10.02;22.76;-27.55
-4.14;22.98;-4.68;33.43;27.66;-20.36
0.65;0.44;-1.42;2.83;43.78;-5.01
-0.87;2.07;-14.37;8.39;38.11;4.68
3.92;2.07;0.98;4.46;16.33;13.50
-0.87;-1.96;-0.65;21.34;-20.69;21.56
0.65;5.23;0.98;-2.07;-44.87;-0.22
1.52;2.07;1.74;-5.23;-54.56;19.17
0.65;3.70;2.61;1.20;-52.16;20.80
-0.11;6.10;8.17;3.59;-46.50;15.90
2.29;-5.23;12.20;-6.10;-40.84;27.99
3.16;2.83;11.43;-8.49;-31.15;11.11
2.29;5.23;2.61;-5.23;-19.93;-23.52
3.16;-4.36;0.98;-6.10;-3.81;20.80
-0.87;-2.83;0.11;11.65;8.28;-20.36
3.16;-1.20;-2.29;1.20;12.31;-23.52
1.52;3.70;-4.68;4.46;18.73;-23.52
-0.87;-2.83;-5.44;9.26;30.82;-18.73
0.65;-4.36;5.01;6.86;21.24;-21.13
1.52;0.44;-18.40;11.65;22.76;-40.51
2.29;-5.23;-6.32;7.62;15.57;-25.16
-0.87;-2.83;-2.29;-17.32;12.31;-10.67
16.77;1.20;-0.65;7.62;22.76;0.65
3.16;-1.96;-2.29;6.86;26.03;6.21
-0.87;2.83;-0.65;2.83;20.36;22.32
3.16;-1.20;2.61;2.83;17.97;27.22
3.16;3.70;2.61;-9.26;4.25;23.96
-0.11;2.83;6.64;1.20;4.25;27.99
-0.87;5.23;4.14;0.44;-3.81;23.96
-0.87;6.10;6.64;-8.49;-6.97;18.30
1.52;4.46;10.67;-3.59;-13.39;26.35
-4.14;8.49;25.16;-6.10;-15.03;-12.31
-4.14;-9.26;8.17;-34.30;-26.35;-1.85
1.52;22.22;5.01;-14.16;-33.54;-15.46
-7.41;2.07;-0.65;-2.07;-27.99;-24.39
-0.11;-1.20;-0.65;-2.83;-20.69;-23.52
-1.74;-1.96;-2.29;-6.10;-15.03;-30.82
3.16;-5.99;-9.47;3.59;-2.18;-30.82
-2.50;-2.83;-9.47;2.83;1.09;-21.13
21.67;-5.23;-7.84;16.44;5.88;-19.49
3.16;-3.59;-9.47;2.83;10.78;-29.19
-0.87;-4.36;-10.35;4.46;28.42;4.68
-1.74;1.20;-5.44;2.83;5.12;-8.28
-1.74;-1.96;-2.29;-0.44;13.18;1.42
0.65;1.20;-4.68;6.86;12.31;23.96
-0.87;2.07;1.74;3.59;13.94;23.20
-2.50;6.10;5.01;3.59;10.78;52.16
-0.11;2.07;5.01;1.96;6.75;28.86
-8.93;2.07;8.17;-1.20;19.60;32.89
0.65;0.44;9.80;-3.59;29.29;32.89
8.71;2.07;10.67;10.02;22.00;32.89
1.52;2.83;5.01;7.62;4.25;17.53
-4.14;2.07;6.64;0.44;-6.97;-0.98
3.16;-1.20;32.34;-4.46;-22.32;-13.07
1.52;-5.99;-0.65;-0.44;-34.41;-25.16
2.29;0.44;-1.42;-2.07;-48.90;-23.52
2.29;-1.20;-2.29;-2.07;-48.13;-23.52
-4.14;-1.96;-2.29;-1.20;-30.38;-23.52
38.55;2.07;-7.84;-27.77;-13.39;-26.79
1.52;-2.83;-3.05;1.20;5.12;-5.88
8.71;-4.36;-5.44;2.83;7.51;-30.82
3.16;1.20;-11.11;1.20;7.51;-23.52
2.29;4.46;-0.65;3.59;6.75;-6.64
-0.11;-2.83;-0.65;-0.44;5.12;2.18
0.65;0.44;-0.65;-1.20;5.12;19.93
-1.74;2.07;-1.42;0.44;6.75;22.32
-1.74;2.07;14.70;4.46;10.78;26.35
-0.87;-4.36;7.41;1.96;30.82;27.99
-0.87;0.44;0.98;-1.20;44.54;29.62
-1.74;-3.59;7.41;-10.13;29.29;25.59
-1.74;5.23;17.10;-9.26;13.94;27.99
-0.87;2.83;-19.17;-10.89;1.09;23.96
2.29;6.10;0.98;-2.07;-8.60;7.08
3.92;3.70;2.61;0.44;-10.24;-0.22
3.16;-1.20;0.98;-1.20;-18.30;-10.67
24.07;-1.20;-0.65;7.62;-12.63;-15.46
2.29;-1.96;-3.81;8.39;-8.60;-22.76
3.16;0.44;-3.81;31.80;17.97;-20.36
-0.87;-1.20;-31.25;7.62;13.94;-12.31
3.16;-4.36;-6.32;4.46;16.33;-1.85
3.92;-2.83;-4.68;3.59;9.15;-34.09
-0.87;-2.83;-26.46;9.26;18.73;-18.73
-2.50;3.70;-0.65;0.44;26.03;-9.91
3.92;1.20;0.98;1.20;17.21;2.18
0.65;-0.33;4.14;-1.20;-0.54;12.74
3.16;-1.20;2.61;3.59;-11.00;18.30
-0.11;1.20;6.64;-1.20;-23.09;22.32
-4.14;-1.20;-0.65;-10.13;-32.02;27.99
0.65;3.70;-19.93;-5.23;-46.50;35.28
1.52;-5.99;5.01;-10.13;-48.13;23.96
1.52;5.23;7.41;-3.59;-44.87;28.86
-2.50;-1.20;7.41;-3.59;-21.45;14.27
3.16;6.10;11.43;-8.49;6.75;2.18
-0.11;19.82;-0.65;-15.68;25.26;-10.67
-0.87;3.70;-1.42;1.20;25.26;-22.76
3.16;3.70;-0.65;3.59;18.73;-23.52
3.16;-5.23;-2.29;7.62;7.51;-23.52
3.16;2.07;-3.05;11.65;3.48;-22.76
8.71;-25.37;-9.47;10.02;18.73;-18.73
-0.87;-5.99;-9.47;8.39;22.00;-17.97
-4.90;44.76;-9.47;-0.44;17.21;-26.03
-5.77;-2.83;-8.71;-2.83;-6.97;-20.36
1.52;-21.34;-5.44;-6.10;-21.45;-8.28
-19.49;-1.20;-2.29;-1.20;-16.66;3.05
-0.87;2.07;2.61;0.44;-19.06;12.74
-0.87;-1.20;4.14;-2.07;9.91;17.53
-2.50;6.10;4.14;-1.20;-3.81;20.80
3.16;1.20;5.01;-1.20;-5.34;1.42
0.65;-1.20;13.07;-2.83;-1.31;27.22
16.77;1.20;8.17;-9.26;-7.84;24.83
-18.62;6.10;9.04;-5.23;4.25;27.99
-12.20;3.70;13.07;-2.07;9.15;23.96
0.65;3.70;9.80;-0.44;18.73;2.18
0.65;1.20;-0.65;-2.83;9.91;-5.01
-0.87;1.20;0.98;4.46;9.91;-18.73
-1.74;2.83;-0.65;4.46;7.51;-3.38
0.65;-1.20;-12.74;2.83;13.18;-22.00
2.29;-5.99;-6.32;9.26;5.12;-21.13
2.29;-4.36;-8.71;6.86;5.12;-16.33
3.16;-2.83;-5.44;5.99;1.09;-1.85
2.29;-5.23;-4.68;6.86;3.48;-25.16
3.16;-4.36;-2.29;6.86;1.09;-17.97
0.65;-5.23;-0.65;10.89;4.25;-5.01
2.29;-10.89;0.11;37.46;3.48;7.84
-1.74;29.40;1.74;5.99;5.12;17.53
2.29;-4.36;17.86;0.44;5.12;22.32
1.52;-1.20;4.14;1.20;5.88;29.62
1.52;5.23;9.80;-2.83;9.15;53.80
-3.38;-1.20;5.01;-6.10;5.12;3.81
-2.50;5.23;5.01;-1.20;1.09;17.53
3.16;2.07;9.04;-5.23;-8.60;24.83
3.16;8.49;8.17;-11.65;-8.60;12.74
1.52;2.07;9.04;-5.23;-16.66;-5.01
1.52;6.10;1.74;0.44;-19.06;-13.07
11.98;-5.23;-0.65;-16.55;-18.30;-24.39
2.29;-4.36;-2.29;-13.29;5.12;-23.52
3.16;0.44;-3.05;4.46;5.12;-22.00
0.65;-0.33;8.17;6.86;-10.24;-49.33
-0.87;-5.23;-3.05;9.26;-19.93;-24.39
3.92;-5.99;-5.44;4.46;-23.09;-23.52
-1.74;-4.36;-9.47;0.44;-25.48;-28.42
2.29;-2.83;-2.29;-3.59;-23.96;-23.52
-0.11;-6.86;-0.65;-1.20;-21.45;2.18
-0.11;-2.83;-0.65;-2.07;-13.39;4.68
-5.77;19.82;0.11;-21.34;3.48;14.27
4.68;4.46;-11.11;-7.62;29.29;19.17
-3.38;-30.17;0.98;-0.44;47.81;27.99
1.52;-24.50;1.74;2.83;42.91;27.99
-4.14;-5.99;5.01;-2.07;25.26;33.65
-5.77;5.23;-0.65;-0.44;20.36;30.38
-6.53;4.46;-1.42;4.46;10.78;32.02
2.29;-19.71;7.41;39.86;-0.54;31.25
0.65;6.10;6.64;10.89;-15.03;12.74
4.68;8.49;4.14;5.99;-2.18;2.18
0.65;2.07;-12.74;7.62;4.25;1.42
1.52;1.20;-0.65;10.89;-3.81;-22.00
1.52;-4.36;-7.84;2.83;-13.39;-22.76
1.52;-1.20;-10.35;6.86;-12.63;-23.52
3.16;-1.20;-4.68;5.99;-7.84;-21.13
0.65;-2.83;-6.32;10.89;-7.84;-18.73
-4.14;-1.20;-4.68;-1.20;-11.87;-32.45
27.33;-4.36;-8.71;-1.20;-10.24;-25.16
1.52;2.07;-1.42;-6.10;-6.97;4.68
2.29;-4.36;-2.29;-11.65;0.22;1.42
2.29;-0.33;-2.29;-14.16;-7.84;11.11
-0.87;6.10;3.38;-14.16;1.09;23.96
-2.50;14.16;4.14;-6.86;9.91;22.32
3.16;5.23;0.98;6.86;5.12;23.96
0.65;0.44;11.43;-2.07;1.09;26.35
-8.93;0.44;9.80;0.44;3.48;27.99
-5.77;2.83;4.14;-2.07;5.12;33.65
-0.87;4.46;4.14;-2.07;9.91;14.27
-4.90;-1.20;3.38;-0.44;9.15;2.18
1.52;-7.62;8.17;0.44;10.78;-5.88
-15.46;21.34;4.14;2.83;-0.54;-15.46
3.16;-1.20;-15.90;4.46;13.18;-21.13
3.16;-5.99;-1.42;-18.19;4.25;-21.13
2.29;-2.83;-12.74;7.62;3.48;-51.73
0.65;-1.96;-4.68;6.86;-2.94;-22.76
2.29;-2.83;-18.40;11.65;-10.24;2.18
2.29;-2.83;-5.44;-14.16;-8.60;-26.03
0.65;-1.20;-5.44;-1.20;-5.34;-22.76
-1.74;-0.33;-0.65;27.01;5.12;-6.64
15.25;-2.83;-0.65;-0.44;15.57;3.05
16.01;-1.20;-0.65;-5.23;12.31;13.50
-1.74;2.83;-0.65;-3.59;-3.81;23.96
1.52;3.70;4.14;-2.07;-2.94;27.22
-1.74;5.23;6.64;-21.34;-9.37;27.99
2.29;-2.83;6.64;-3.59;-13.39;29.62
2.29;2.07;10.67;-2.83;-28.75;27.99
16.77;-5.99;9.80;-1.20;-21.45;30.38
3.16;-1.20;13.07;-2.83;-11.87;22.32
-5.77;5.23;9.80;-3.59;6.75;2.18
-0.87;5.23;4.14;-0.44;34.85;-5.01
0.65;1.20;-8.71;1.20;43.78;-49.33
-4.14;-4.36;-2.29;1.20;30.06;-27.55
1.52;22.98;-1.42;-29.40;5.12;-28.42
3.16;6.86;-4.68;2.83;-24.72;-31.58
-0.11;-6.86;-5.44;10.89;-44.10;-26.79
-5.77;-10.89;-7.84;1.20;-44.10;-26.03
-4.14;2.07;-1.42;5.99;-34.41;-31.58
1.52;-4.36;-5.44;-5.23;-32.02;-23.52
3.16;-3.59;-4.68;-14.16;-18.30;-13.94
0.65;-1.96;0.11;-8.49;8.28;3.81
-4.14;1.20;4.14;-1.20;2.72;11.87
2.29;0.44;3.38;-0.44;9.91;19.17
-21.02;0.44;1.74;0.44;19.60;19.93
-0.87;0.44;4.14;-9.26;22.76;26.35
-7.41;0.44;6.64;-1.20;26.79;33.65
-0.87;0.44;-15.90;0.44;23.63;27.99
-15.46;5.23;9.80;-2.07;26.03;33.65
0.65;6.10;5.01;4.46;46.17;29.62
-1.74;2.07;7.41;2.83;48.57;7.84
-0.87;-1.20;5.01;-0.44;30.82;6.21
-1.74;6.10;0.98;-1.20;15.57;-9.91
2.29;-27.01;-4.68;5.99;-8.60;-22.00
2.29;0.44;-0.65;7.62;-20.69;-23.52
3.92;0.44;-7.84;-6.86;-46.50;-21.13
3.16;2.83;-7.84;3.59;-72.31;-23.52
3.16;-5.23;11.43;8.39;-61.75;-22.76
3.16;-5.99;-0.65;10.89;-40.84;-34.09
0.65;-0.33;-4.68;3.59;-8.60;-23.52
1.52;2.07;-0.65;1.20;19.60;-12.31
-0.11;2.07;-0.65;-0.44;30.82;1.42
2.29;2.07;3.38;-1.20;26.03;1.42
-0.11;14.92;-0.65;-6.86;15.57;20.80
2.29;-0.33;3.38;-3.59;10.78;23.20
0.65;3.70;3.38;-2.83;1.09;24.83
-0.87;6.10;6.64;-27.01;0.22;23.96
0.65;-13.29;8.17;0.44;-24.72;20.80
-1.74;8.49;7.41;-0.44;2.72;28.86
-4.14;-1.20;9.04;-5.23;4.25;18.30
0.65;-1.96;21.13;-5.23;4.25;2.18
-0.87;-1.96;4.14;-5.23;1.09;-10.67
-2.50;4.46;-0.65;-5.23;5.12;-23.52
0.65;2.07;-4.68;-6.10;-4.57;-23.52
3.92;-5.23;-0.65;-1.20;-10.24;-23.52
1.52;-5.23;-4.68;4.46;-12.63;-22.76
3.92;-2.83;-7.84;5.99;-8.60;-19.49
3.16;-3.59;-9.47;4.46;1.85;-13.07
-12.20;-6.86;-12.74;-0.44;-2.94;-17.97
1.52;3.70;-32.02;10.02;14.70;-10.67
3.92;-2.83;-3.05;7.62;22.76;0.65
3.16;-5.23;19.49;7.62;18.73;3.81
-0.11;2.07;3.38;-9.26;16.33;17.53
2.29;-1.20;25.16;0.44;6.75;17.53
3.16;0.44;4.14;-1.20;1.09;15.90
-0.87;4.46;-9.47;1.20;-4.57;19.17
0.65;5.23;0.11;-3.59;-15.03;22.32
32.89;2.07;7.41;-5.23;-17.42;16.77
-2.50;3.70;-0.65;-2.83;-19.06;26.35
-4.90;2.07;8.17;-8.49;-20.69;19.93
7.19;-14.05;5.01;-2.83;-15.90;2.18
-26.68;-1.96;5.01;1.96;-9.37;-2.61
-4.90;6.10;-1.42;-5.23;2.72;-19.49
3.92;-1.20;0.11;-0.44;22.76;-23.52
3.16;-1.20;-2.29;-9.26;9.15;-18.73
24.83;-5.99;-2.29;11.65;-3.81;-20.36
3.16;-2.83;-26.46;4.46;6.75;-22.76
0.65;-4.36;-3.05;9.26;-2.18;-22.00
1.52;-6.86;-5.44;0.44;-15.03;-28.42
3.16;-4.36;-5.44;-5.23;-16.66;-23.52
-7.41;-1.96;-1.42;-2.83;-16.66;-9.91
-0.87;-1.96;-0.65;-25.37;-10.24;2.18
-7.41;1.20;-0.65;-1.20;-9.37;12.74
-4.14;-15.68;0.98;-8.49;-8.60;22.32
0.65;2.83;4.14;1.20;-3.81;27.22
-5.77;6.10;1.74;4.46;5.12;27.99
-0.87;3.70;-7.84;1.20;7.51;27.99
-0.87;3.70;4.14;-1.20;9.15;22.32
1.52;-1.20;9.04;-2.83;9.15;36.05
2.29;6.10;7.41;-10.13;-6.21;23.20
3.16;-4.36;-1.42;-5.23;2.72;4.68
-2.50;6.10;1.74;-5.23;2.72;-12.31
3.16;0.44;-0.65;-1.20;1.09;-22.76
-4.14;-5.23;-0.65;1.20;-9.37;-23.52
-0.87;1.20;-3.05;1.20;-2.18;-29.19
3.16;-1.96;-7.84;0.44;-4.57;-49.33
5.55;-2.83;-0.65;11.65;-9.37;-48.57
0.65;-4.36;-8.71;11.65;1.09;-25.16
-0.87;-3.59;-3.05;11.65;4.25;-36.48
-0.87;-6.86;-1.42;2.83;9.91;-22.76
-26.68;0.44;-0.65;3.59;5.12;-5.88
3.16;0.44;-0.65;1.20;17.97;9.47
0.65;-5.23;0.11;-1.20;23.63;23.96
16.01;3.70;4.14;5.99;26.03;27.22
-1.74;6.10;4.14;-2.83;15.57;28.86
3.16;6.10;8.17;-1.20;5.12;27.22
-2.50;3.70;8.17;-0.44;-5.34;1.42
-5.77;4.46;12.20;-0.44;-19.93;27.99
-0.87;6.86;25.16;-2.07;-33.54;25.59
-1.74;4.46;8.17;-5.23;-33.54;32.89
0.65;6.10;11.43;-2.83;-32.02;1.42
-4.14;2.07;0.98;-0.44;-21.45;-10.67
-4.14;3.70;1.74;-2.83;-18.30;-17.97
-0.11;-2.83;-1.42;-1.20;-3.81;-23.52
-0.87;-1.20;-0.65;9.26;6.75;-23.52
1.52;-1.20;-5.44;7.62;10.78;-23.52
-0.87;-4.36;-0.65;9.26;32.45;-17.97
3.92;1.20;-4.68;5.99;71.98;-13.07
-5.77;0.44;-11.11;-0.44;47.81;-23.52
-0.87;-10.89;-4.68;2.83;44.54;-16.33
16.77;-4.36;-1.42;7.62;30.82;-6.64
-9.80;-4.36;-0.65;19.71;12.31;2.18
3.16;-3.59;-13.50;-3.59;-22.32;27.99
-32.34;-1.20;-0.65;-3.59;-67.41;16.77
2.29;-2.83;5.01;-2.07;-95.61;18.30
2.29;1.20;4.14;-12.52;-85.16;24.83
0.65;-1.20;5.01;-5.23;-47.26;20.80
-11.43;5.23;5.01;-5.23;-18.30;22.32
3.16;6.10;5.01;-10.89;5.12;27.99
3.16;6.10;9.04;3.59;25.26;19.17
-0.11;3.70;6.64;-2.83;22.00;6.21
-7.41;3.70;15.46;3.59;17.21;-10.67
-2.50;-1.96;-9.47;4.46;13.18;-22.76
1.52;-4.36;-26.46;10.02;15.57;-25.16
2.29;1.20;0.11;11.65;9.91;-21.13
1.52;-1.20;-3.05;3.59;17.97;-14.70
