-5.88;4.03;17.10;-2.07;7.08;20.58
2.94;5.66;18.73;-0.44;18.40;27.01
-1.85;1.63;-2.18;-2.07;25.70;28.64
2.18;5.66;11.54;-7.73;22.43;15.79
2.94;2.40;10.67;-10.89;6.32;21.34
3.81;1.63;0.98;-10.89;-14.59;-10.02
6.97;-4.79;-5.44;-7.73;-25.92;-18.95
2.94;-2.40;-3.81;0.33;-29.08;-20.47
-1.85;21.78;-11.11;5.99;-37.13;-21.34
-1.09;-2.40;-7.08;1.96;-33.98;-23.74
2.18;-3.27;-15.90;10.02;-29.08;-14.05
-1.09;-4.03;-21.56;38.22;-17.86;-20.47
-1.85;-4.79;-24.72;10.02;-3.38;-22.98
-1.09;-5.66;-20.69;13.29;10.35;-15.68
-1.85;-6.43;-12.63;-16.55;18.40;-1.96
-1.09;-4.79;-29.62;3.59;23.20;-0.33
-1.85;0.76;0.98;-2.07;20.04;14.16
-2.72;-1.63;7.51;-2.83;-1.74;17.32
-8.28;4.03;13.07;-7.73;10.35;19.82
-1.09;5.66;20.36;-6.86;6.32;14.92
-2.72;-1.63;9.91;-9.26;7.95;0.44
-2.72;5.66;12.31;-1.20;10.35;27.01
-1.09;5.66;22.76;-10.89;7.95;31.04
4.57;2.40;11.54;9.26;3.92;15.79
2.94;20.91;13.07;-1.20;-21.89;2.83
3.81;4.03;-0.54;1.20;-16.23;14.92
2.94;1.63;0.22;0.33;-12.20;2.07
2.18;0.76;-6.21;2.83;-15.46;-17.32
3.81;5.66;-8.60;10.89;-14.59;-14.92
0.54;-3.27;-8.60;5.23;-0.11;-17.32
0.54;-2.40;-16.66;8.39;12.74;-12.41
0.54;-4.79;-17.53;10.89;14.37;-18.95
0.54;-4.79;-23.20;18.95;3.92;-36.59
-2.72;-4.79;-22.32;10.89;-17.86;-13.29
-2.72;-4.79;-8.60;-3.70;-18.62;3.70
1.31;-2.40;-3.81;2.83;-12.20;5.23
-4.25;-2.40;0.98;-31.91;-21.02;12.52
0.54;-1.63;6.64;-14.92;11.11;18.95
-0.22;3.27;14.70;-9.26;23.20;17.32
2.18;-5.66;16.33;-12.52;18.40;18.19
2.94;3.27;15.57;-7.73;12.74;17.32
-1.09;4.79;12.31;18.95;3.05;26.24
2.94;2.40;39.64;-6.10;-4.90;32.67
-4.25;5.66;13.94;-2.07;-4.90;13.29
1.31;14.48;6.64;1.96;-7.41;2.83
-1.09;4.79;2.61;1.96;1.52;-7.62
-8.28;8.06;-7.08;5.23;13.61;-20.47
1.31;-2.40;-9.47;10.02;11.11;-17.32
0.54;-1.63;-8.60;11.65;5.55;-14.92
1.31;-6.43;-6.21;7.62;-8.17;-22.98
-1.09;-1.63;-16.66;6.86;-18.62;-20.47
2.94;-12.85;-17.53;10.89;-17.86;-12.41
2.18;-6.43;-19.93;10.89;-20.26;-22.98
-4.25;-8.06;-34.41;3.59;-17.86;-15.68
-5.12;-2.40;-13.50;2.83;-9.80;19.82
-4.25;-1.63;-2.18;-1.20;-2.50;7.73
-0.22;4.79;3.48;-12.52;14.37;16.55
2.94;1.63;11.54;-3.70;40.18;11.76
-0.22;0.76;17.10;-4.46;18.40;10.89
-2.72;2.40;19.60;-9.26;5.55;10.89
1.31;0.76;20.36;-12.52;-4.90;6.10
-2.72;5.66;10.67;-9.26;-9.80;49.55
2.94;4.79;11.54;-31.91;-15.46;24.61
0.54;5.66;5.88;-5.23;-14.59;26.24
-1.09;5.66;9.04;-3.70;-11.43;14.92
2.94;3.27;-0.54;-0.44;-0.11;1.20
3.81;3.27;-3.81;22.87;4.68;-10.02
2.94;-1.63;-27.22;5.23;13.61;-11.65
1.31;-24.18;-11.87;5.99;14.37;-11.65
2.94;33.87;-10.24;2.83;18.40;-17.32
1.31;-3.27;-15.14;12.41;19.17;-9.26
2.18;-6.43;-17.53;-14.92;18.40;-12.41
2.94;-4.79;-22.32;12.41;6.32;-22.11
-1.09;-6.43;-19.93;10.89;6.32;-7.62
2.94;-0.00;-10.24;8.39;-4.14;2.07
3.81;-5.66;-1.42;1.96;-20.26;3.70
2.18;-2.40;4.25;3.59;-27.55;4.46
0.54;2.40;9.04;-9.26;-10.56;10.13
2.94;-4.03;13.07;-6.86;6.32;10.89
-17.21;5.66;17.10;-7.73;18.40;19.82
-9.91;3.27;14.70;-6.10;15.14;19.82
-5.12;0.76;14.70;-2.07;14.37;25.37
-4.25;5.66;15.57;-10.13;-8.17;19.82
2.18;6.43;13.94;-6.86;-9.80;15.79
3.81;7.19;9.91;-2.83;-1.74;-4.36
-1.85;3.27;2.61;-0.44;-9.80;14.16
-5.12;4.03;-1.42;-3.70;-8.17;-22.11
-1.85;-0.00;-5.44;-4.46;-5.77;-22.11
-0.22;3.27;-8.60;-2.07;-9.80;-22.98
0.54;-4.79;-7.08;-4.46;-4.14;-22.98
0.54;-5.66;-15.90;-2.83;-1.74;-11.65
2.94;-7.30;-19.17;-1.20;-4.14;-12.41
6.21;-12.85;-2.18;1.96;-2.50;-23.74
2.94;-4.79;-23.20;5.99;-1.74;-5.99
1.31;4.79;-14.27;-0.44;3.92;-1.20
-5.88;-6.43;-1.42;5.23;5.55;3.70
-2.72;-4.79;-0.54;-2.83;5.55;17.32
-0.22;-1.63;14.70;-2.07;-0.11;12.52
-4.25;-2.40;28.42;-6.86;5.55;10.89
-1.09;2.40;20.36;-7.73;5.55;20.58
-4.25;-0.00;13.94;-3.70;7.95;19.82
1.31;4.79;15.57;-2.07;5.55;20.58
2.18;7.19;21.13;-9.26;-20.26;27.88
0.54;5.66;24.39;-2.07;5.55;17.32
0.54;6.43;0.22;-4.46;1.52;27.01
2.94;-22.54;1.85;-2.07;3.05;-2.83
3.81;5.66;-0.54;1.96;3.05;10.13
2.94;-16.12;-5.44;10.89;9.58;-11.65
5.34;1.63;-14.27;10.89;20.80;-10.89
4.57;-4.03;-5.44;-10.89;14.37;-10.89
2.94;-7.30;-1.42;8.39;-8.17;-10.02
2.94;-2.40;-16.66;5.99;-19.49;11.76
2.94;-2.40;-21.56;9.26;-20.26;-15.68
2.94;-8.06;-19.17;6.86;-16.23;-11.65
-2.72;0.76;-11.87;0.33;-6.53;-10.02
-4.25;-2.40;-2.18;2.83;4.68;2.83
-5.88;-3.27;3.48;-26.24;5.55;13.29
-7.51;1.63;11.54;1.96;7.08;11.76
3.81;3.27;12.31;-9.26;9.58;11.76
0.54;-2.40;20.36;7.62;11.11;17.32
-0.22;4.79;15.57;-10.13;7.95;22.98
2.94;1.63;5.88;-13.29;12.74;34.30
3.81;8.06;12.31;10.02;5.55;26.24
2.18;1.63;11.54;-3.70;2.29;18.19
-4.25;6.43;9.04;-2.07;3.05;2.83
-4.25;4.79;-1.42;4.36;0.65;-10.02
0.54;5.66;-5.44;11.65;-8.17;-22.98
-1.09;-5.66;-9.47;10.02;5.55;-18.08
-0.22;4.03;-10.24;10.02;-8.17;-22.98
-4.25;-4.79;-10.24;8.39;-2.50;-25.37
-4.25;-1.63;-27.22;5.23;-9.80;-17.32
4.57;0.76;-19.17;-2.07;-10.56;-22.11
2.94;5.66;-27.22;-2.07;-14.59;-18.08
2.18;30.60;-19.93;-2.07;-12.20;-9.26
-0.22;-5.66;-14.27;-2.07;-3.38;-2.83
2.18;-2.40;-5.44;1.20;5.55;-14.92
1.31;3.27;-0.54;-6.86;11.11;14.16
2.18;-2.40;4.25;0.33;12.74;14.92
-0.22;30.60;10.67;-13.29;12.74;15.79
-1.85;-1.63;13.94;9.26;6.32;18.19
-1.09;3.27;20.36;-1.20;-3.38;13.29
2.18;0.76;13.07;-6.10;-4.90;23.85
2.94;5.66;10.67;-9.26;-14.59;44.76
3.81;7.19;12.31;-2.07;-8.17;5.23
2.94;5.66;-1.42;0.33;0.65;2.83
0.54;2.40;-0.54;3.59;17.64;-3.59
-5.88;0.76;-1.42;8.39;16.77;-10.02
2.18;4.03;-5.44;10.02;5.55;-14.92
2.94;1.63;-7.08;6.86;-5.77;-22.11
2.18;-21.78;-7.84;9.26;-20.26;-18.08
2.94;-17.75;-19.93;14.05;-4.90;-9.26
1.31;-0.00;-21.56;10.89;1.52;-17.32
0.54;-8.06;-22.32;11.65;20.80;-20.47
-1.85;-4.79;-19.17;12.41;11.11;1.20
-1.85;-3.27;-10.24;8.39;7.95;1.20
-0.22;-8.06;-1.42;0.33;3.05;11.76
2.94;-4.79;4.25;-6.86;4.68;14.92
-1.85;-0.76;11.54;-10.89;0.65;15.79
5.34;3.27;10.67;-10.13;7.08;18.19
2.94;5.66;15.57;-2.83;7.95;13.29
0.54;5.66;16.33;-7.73;8.71;16.55
-6.75;5.66;10.67;-3.70;0.65;19.82
-1.85;-2.40;11.54;-12.52;-8.17;22.98
0.54;-6.43;5.88;-10.89;-12.20;6.10
-2.72;2.40;4.25;-11.76;-18.62;-1.20
-8.28;5.66;0.22;-12.52;-21.89;-12.41
-9.91;-1.63;-9.47;-3.70;-16.23;-22.98
-5.88;-16.12;-14.27;10.89;-20.26;-22.98
-6.75;-1.63;-13.50;-2.07;-16.23;-22.11
1.31;-7.30;-17.53;1.20;-6.53;-24.50
3.81;-1.63;-18.30;5.99;2.29;-12.41
4.57;-4.03;-17.53;3.59;9.58;-18.95
4.57;20.91;-26.35;10.02;27.22;-11.65
7.84;17.75;-26.35;10.89;7.95;-1.20
16.66;-3.27;-14.27;5.23;20.80;8.49
10.24;-3.27;-1.42;6.86;33.76;14.16
2.94;-16.12;0.22;-9.26;16.01;12.52
-1.85;2.40;13.07;-2.83;11.11;16.55
2.94;3.27;13.94;-3.70;16.01;16.55
-1.85;4.03;19.60;-5.23;3.92;13.29
0.54;5.66;20.36;-6.10;3.05;24.61
-8.28;-1.63;13.07;-6.86;-8.17;21.34
-5.88;8.06;15.57;-6.10;-11.43;24.61
-10.78;5.66;15.57;-2.07;-14.59;10.13
-5.88;5.66;5.88;-2.07;-15.46;2.07
-1.09;6.43;4.25;-2.07;-6.53;-4.36
-6.75;-0.00;-6.21;0.33;-1.74;-10.02
-2.72;3.27;5.88;6.86;0.65;-14.92
-1.09;5.66;-5.44;5.23;3.92;-21.34
2.94;-1.63;-4.57;0.33;5.55;-14.92
1.31;-6.43;-17.53;5.23;1.52;-13.29
-1.09;12.85;-15.14;10.02;7.95;-18.95
2.18;-1.63;-19.17;10.89;22.43;-22.98
2.18;-7.30;-18.30;10.89;24.07;-10.02
2.94;-3.27;-12.63;4.36;-20.26;-5.99
1.31;-0.00;-3.81;-1.20;-15.46;10.13
-3.48;-1.63;0.98;-18.95;-1.74;12.52
-1.85;16.12;3.48;-10.13;-17.86;14.16
-5.12;1.63;15.57;-12.52;-11.43;-9.26
-5.12;5.66;15.57;-14.92;-5.77;12.52
-1.85;3.27;17.10;-12.52;-3.38;18.19
-5.12;-1.63;17.10;-9.26;-6.53;24.61
1.31;5.66;-10.24;1.96;1.52;32.67
2.18;5.66;13.94;0.33;-1.74;19.82
0.54;2.40;9.91;1.96;5.55;7.73
-1.09;-25.81;4.25;-10.89;5.55;-1.20
1.31;0.76;-9.47;1.20;12.74;-11.65
2.94;-1.63;-8.60;4.36;9.58;-20.47
6.21;0.76;-19.93;-2.07;11.11;-22.98
6.97;-6.43;-9.47;2.83;17.64;-22.11
4.57;-10.45;-5.44;3.59;20.80;-11.65
2.94;1.63;4.25;9.26;13.61;-18.95
8.60;-7.30;10.67;10.89;6.32;-22.11
-4.25;-5.66;-5.44;9.26;-0.11;-17.32
-2.72;4.79;24.39;-0.44;-9.80;-9.26
-4.25;-29.84;30.06;-14.16;-18.62;0.44
-1.85;-0.00;34.09;-3.70;-32.34;11.76
-9.15;-0.76;52.60;-13.29;-31.58;2.83
-3.48;3.27;38.11;-4.46;-30.71;29.40
-4.25;1.63;44.54;-11.76;-20.26;15.79
2.94;4.03;34.09;-19.82;-6.53;13.29
2.94;5.66;24.39;-6.10;1.52;17.32
-3.48;5.66;24.39;-12.52;16.77;27.01
-1.09;-7.30;14.70;8.39;19.17;14.92
-8.28;4.79;34.09;1.20;14.37;4.46
-5.88;2.40;-19.17;5.99;18.40;-1.20
2.18;-9.69;-2.18;10.02;18.40;-10.02
-1.09;1.63;-10.24;10.89;5.55;-14.92
2.94;0.76;-11.11;6.86;-12.20;-23.74
2.94;-4.03;-9.47;6.86;-20.26;-17.32
2.18;-6.43;-25.59;5.99;-15.46;-11.65
2.94;-7.30;-27.22;5.23;-6.53;-14.92
2.94;-15.35;-29.62;5.23;1.52;-22.98
1.31;-11.33;-27.22;-6.10;4.68;-14.05
0.54;-4.79;-19.17;-12.52;-3.38;-4.36
-1.85;-5.66;-18.30;2.83;-6.53;2.07
-0.22;0.76;7.51;-2.83;-9.80;11.76
-2.72;0.76;1.85;-13.29;-6.53;11.76
-0.22;3.27;0.98;-7.73;0.65;7.73
-1.09;-32.23;9.04;-9.26;5.55;14.92
-1.85;5.66;10.67;-3.70;16.77;26.24
3.81;5.66;9.91;-6.10;20.04;56.85
2.18;4.03;4.25;-2.83;14.37;31.04
-1.85;4.03;-3.05;-0.44;7.95;22.98
-4.25;4.03;3.48;2.83;-0.11;3.70
2.94;4.03;-7.08;2.83;0.65;0.44
8.60;0.76;-12.63;1.96;0.65;-10.02
2.18;0.76;-11.87;0.33;0.65;-14.05
2.18;2.40;-15.14;35.83;5.55;-19.71
0.54;1.63;-15.14;-19.82;20.80;-19.71
-1.85;-2.40;-27.99;10.02;1.52;-14.05
-0.22;-34.63;-18.30;8.39;1.52;-10.89
-5.88;-7.30;-26.35;10.02;-1.74;-22.11
-2.72;-5.66;-22.32;10.89;-0.11;-34.96
5.34;-7.30;-12.63;5.23;1.52;15.79
1.31;-0.76;-1.42;-1.20;-0.11;2.83
-1.09;-1.63;-0.54;-2.07;-4.90;13.29
-2.72;-1.63;6.64;-11.76;-1.74;9.26
-4.25;-1.63;12.31;-12.52;1.52;14.92
-1.09;-1.63;7.51;-14.16;4.68;14.16
0.54;5.66;14.70;-12.52;-0.11;19.82
28.75;-24.18;9.04;-6.86;-1.74;28.64
-1.09;5.66;-14.27;-10.89;-0.87;29.40
11.87;24.18;7.51;-2.07;1.52;19.82
-1.85;5.66;4.25;-2.83;-2.50;2.83
2.94;-5.66;-1.42;1.96;-8.93;-4.36
1.31;-4.03;-22.32;5.23;7.08;-14.92
1.31;-0.76;8.28;3.59;18.40;-20.47
4.57;-1.63;-12.63;5.23;19.17;-22.11
-1.09;3.27;-15.14;8.39;5.55;-21.34
-22.87;-8.06;-21.56;6.86;-7.41;-9.26
1.31;-5.66;-19.93;10.89;-18.62;-10.89
-12.31;-2.40;-23.20;10.89;-17.86;-22.98
-1.09;-2.40;-21.56;5.99;-6.53;-31.80
20.69;-1.63;-12.63;3.59;-1.74;0.44
2.18;0.76;-5.44;1.96;1.52;3.70
0.54;3.27;-1.42;3.59;0.65;6.86
-1.85;-0.76;13.07;0.33;-4.90;7.73
2.18;4.79;11.54;-17.32;-10.56;17.32
2.94;4.79;19.60;-13.29;-4.90;8.49
-15.57;7.19;16.33;-11.76;-7.41;22.98
5.34;0.76;14.70;-10.89;-9.80;27.88
10.24;-0.00;20.36;-12.52;-7.41;37.46
-4.25;4.03;11.54;-12.52;7.08;16.55
-1.09;4.03;3.48;-7.73;5.55;-21.34
2.94;5.66;11.54;-6.10;5.55;-1.96
25.48;4.03;-3.81;-0.44;5.55;-10.02
2.94;4.03;-15.90;10.02;5.55;-18.08
2.94;17.75;-15.90;-18.95;11.11;-22.11
-1.09;6.43;-19.93;1.96;7.95;-22.98
-8.28;-2.40;-15.14;10.89;7.08;-18.08
-10.78;-3.27;-25.59;8.39;14.37;-22.98
-5.12;-7.30;-27.22;11.65;4.68;-18.08
2.94;-3.27;-19.17;10.89;3.92;-10.02
3.81;1.63;-11.87;1.96;1.52;15.79
-1.09;-0.00;-1.42;3.59;-0.11;2.83
-2.72;-4.03;3.48;0.33;-3.38;11.76
2.94;0.76;4.25;-4.46;3.05;14.92
2.94;3.27;12.31;-19.82;-5.77;14.92
3.81;28.21;21.13;-6.10;-4.90;14.92
2.18;3.27;13.94;-22.98;12.74;16.55
1.31;4.79;16.33;-5.23;7.95;26.24
0.54;4.03;10.67;-2.83;11.11;31.04
1.31;6.43;11.54;-2.83;17.64;18.19
0.54;6.43;17.10;-6.86;24.07;10.13
2.18;3.27;9.04;2.83;29.73;2.83
3.81;-0.76;-22.32;2.83;22.43;-9.26
2.94;-0.76;-13.50;3.59;4.68;-22.11
1.31;-3.27;-11.87;10.02;-17.86;-14.92
2.18;-4.79;-13.50;-2.07;-35.61;-18.95
2.94;-8.06;-19.17;6.86;-42.04;-14.05
2.18;-4.79;-21.56;6.86;-27.55;-12.41
2.94;-6.43;-13.50;10.02;-11.43;-10.89
2.94;-2.40;-14.27;9.26;-0.11;-7.62
-4.25;-5.66;-18.30;-1.20;7.08;2.83
-2.72;-4.79;-13.50;6.86;16.01;6.10
3.81;5.66;-5.44;-9.26;14.37;14.92
1.31;2.40;4.25;-3.70;5.55;11.76
2.18;-0.00;4.25;-12.52;-2.50;10.89
-2.72;35.39;10.67;-6.10;5.55;-17.32
-8.28;2.40;9.04;-11.76;-9.80;5.23
-9.15;14.48;4.25;-14.16;-4.90;13.29
-9.15;5.66;10.67;-7.73;-8.17;16.55
1.31;1.63;10.67;-4.46;-5.77;10.89
0.54;4.03;0.98;-3.70;-12.20;0.44
2.18;4.03;0.22;-2.07;5.55;-4.36
5.34;32.23;-3.81;-22.98;4.68;-5.23
11.87;5.66;-10.24;-1.20;7.95;-10.89
3.81;-8.82;-8.60;0.33;11.11;-17.32
6.21;2.40;-15.14;-0.44;12.74;-20.47
-0.22;-0.00;-27.22;3.59;20.80;-9.26
34.41;-4.79;-25.59;2.83;22.43;-20.47
-5.88;-8.06;-26.35;7.62;18.40;-18.95
-8.28;-1.63;-24.72;6.86;16.01;-9.26
-1.85;-5.66;15.57;4.36;6.32;-1.20
5.34;-1.63;-3.81;9.26;1.52;2.83
0.54;-3.27;9.91;-2.07;-3.38;15.79
-15.57;-3.27;15.57;-0.44;-8.17;14.92
2.94;4.79;16.33;-2.83;-3.38;14.92
-0.22;-0.00;18.73;-16.55;-7.41;18.19
-1.85;6.43;18.73;-1.20;5.55;-5.23
2.94;1.63;10.67;-2.83;0.65;39.97
0.54;4.79;19.60;-2.83;-8.93;28.64
-2.72;5.66;12.31;-2.83;-22.65;14.16
-1.09;-5.66;9.04;-6.86;-42.04;4.46
1.31;5.66;28.42;-2.07;-21.02;-0.33
0.54;-1.63;-1.42;-2.83;-2.50;-17.32
-7.51;1.63;-28.75;3.59;0.65;-21.34
2.18;-2.40;-3.05;6.86;3.05;-22.98
2.18;-2.40;-25.59;1.96;5.55;-10.89
2.94;0.76;-5.44;10.89;5.55;-14.05
23.09;-5.66;-10.24;8.39;6.32;-12.41
-1.09;10.45;-14.27;10.02;7.95;-22.11
15.03;-4.03;-12.63;5.99;5.55;-11.65
-5.88;-4.79;-6.21;-2.07;5.55;0.44
-5.12;-1.63;0.98;-2.83;-3.38;1.20
8.60;0.76;-1.42;3.59;8.71;18.19
1.31;-1.63;11.54;3.59;12.74;14.92
28.75;1.63;15.57;-0.44;13.61;3.70
-3.48;3.27;18.73;-12.52;8.71;15.79
3.81;3.27;13.07;-6.86;4.68;23.85
2.94;4.79;-11.87;-6.86;-1.74;54.45
2.94;5.66;16.33;-12.52;-4.14;22.98
2.94;0.76;11.54;-2.83;-6.53;13.29
-0.22;1.63;2.61;-10.13;-12.20;-4.36
-5.88;4.79;2.61;-15.79;-12.20;-5.23
-8.28;-1.63;-3.05;5.23;-5.77;-18.08
1.31;-0.00;-9.47;1.20;-0.11;-20.47
-1.85;-1.63;-8.60;5.99;3.92;-18.95
-1.85;5.66;-7.84;6.86;8.71;-22.98
0.54;-1.63;-19.93;10.89;9.58;-12.41
2.94;-3.27;-19.93;8.39;10.35;-16.44
0.54;-6.43;-24.72;7.62;14.37;-18.95
2.94;-4.79;-23.20;10.02;17.64;-14.05
3.81;6.43;-13.50;27.77;11.11;2.83
14.27;-2.40;3.48;-1.20;12.74;2.83
2.94;3.27;-8.60;-3.70;4.68;31.04
1.31;3.27;10.67;-14.92;3.05;16.55
-1.09;30.60;11.54;-2.07;-3.38;14.92
-5.88;3.27;12.31;-7.73;-14.59;12.52
-4.25;7.19;13.94;-13.29;-19.49;8.49
-0.22;0.76;12.31;16.44;-28.31;26.24
-1.85;3.27;13.07;-12.52;-24.28;21.34
-5.88;1.63;13.07;-10.13;-20.26;13.29
3.81;-0.00;9.91;-4.46;-19.49;2.83
7.84;-1.63;-1.42;-2.07;1.52;-0.33
3.81;-2.40;-1.42;-2.07;5.55;-11.65
2.18;9.69;-8.60;9.26;8.71;-13.29
2.94;1.63;-8.60;-9.26;7.95;-8.39
-4.25;-1.63;-8.60;7.62;8.71;-17.32
-2.72;-5.66;-19.17;7.62;10.35;-14.92
-1.85;-7.30;-22.32;5.99;22.43;-12.41
-0.22;-8.06;-27.22;10.89;19.17;-14.92
-1.85;-5.66;-19.93;11.65;20.80;-8.39
2.18;1.63;-15.14;6.86;17.64;2.83
2.94;-3.27;-1.42;-28.64;-1.74;2.83
0.54;3.27;2.61;-2.07;-14.59;22.98
2.94;-1.63;11.54;-10.13;-21.89;14.16
2.94;1.63;13.94;-9.26;-16.99;13.29
3.81;2.40;38.88;-10.89;-19.49;12.52
2.94;-0.00;18.73;-5.23;-16.23;10.89
-1.09;5.66;4.25;-6.10;-19.49;-1.20
-1.09;2.40;20.36;-10.89;-14.59;15.79
-1.09;4.79;13.94;-3.70;-9.80;2.83
-22.87;-0.00;4.25;-2.07;-18.62;-1.96
1.31;4.79;1.85;-4.46;4.68;-10.02
-12.31;4.03;-1.42;6.86;7.08;-11.65
-4.25;3.27;-8.60;8.39;10.35;-18.95
-1.85;1.63;-9.47;6.86;7.95;-14.92
-2.72;-2.40;-3.05;10.02;5.55;-14.92
2.94;1.63;-10.24;10.02;12.74;-9.26
1.31;-0.00;-15.90;12.41;17.64;-5.99
-5.88;-4.03;-21.56;10.89;13.61;-10.89
0.54;-7.30;0.98;8.39;11.11;-6.86
2.94;-5.66;-26.35;5.99;8.71;2.83
1.31;8.82;-1.42;-14.16;11.11;5.23
-1.85;-2.40;4.25;29.40;6.32;8.49
-0.22;29.84;12.31;-5.23;-4.90;11.76
2.94;4.03;16.33;-6.10;-1.74;15.79
2.94;-30.60;17.10;-6.86;-1.74;14.16
-0.22;1.63;17.97;-12.52;1.52;14.16
-36.48;4.79;-0.54;-3.70;-9.80;26.24
-1.85;-7.30;14.70;-10.89;-7.41;23.85
-1.85;3.27;14.70;-10.13;-2.50;10.13
-0.22;3.27;4.25;-2.07;13.61;1.20
-4.25;10.45;3.48;0.33;-16.23;-9.26
-2.72;-2.40;-2.18;11.65;-12.20;-17.32
2.94;-1.63;-8.60;10.02;-8.93;-22.11
2.94;-2.40;-9.47;3.59;-8.17;-18.08
0.54;28.97;-7.08;10.02;-2.50;-9.26
3.81;4.03;-11.87;-6.10;4.68;-2.83
10.24;-20.15;-15.90;1.96;-18.62;-10.89
4.57;-4.79;-1.42;2.83;14.37;-17.32
2.94;-6.43;-19.17;5.23;16.01;-17.32
0.54;-7.30;-8.60;-0.44;48.24;-2.83
-1.09;-2.40;-1.42;-20.58;36.92;2.83
-1.09;1.63;0.98;-0.44;20.04;8.49
-0.22;-14.48;10.67;22.87;-9.80;14.92
-1.85;1.63;18.73;-4.46;-42.04;8.49
-4.25;2.40;19.60;-14.92;-46.83;11.76
-8.28;4.79;13.94;-14.92;-5.77;18.19
-1.85;6.43;12.31;-13.29;-6.53;26.24
2.18;-18.51;19.60;-16.55;2.29;29.40
-0.22;1.63;13.94;-6.10;7.08;14.92
1.31;0.76;-0.54;-2.83;5.55;2.83
-0.22;4.79;2.61;34.96;-2.50;-4.36
4.57;0.76;-1.42;-12.52;9.58;-14.05
7.84;-4.79;-3.81;29.40;-6.53;-14.92
2.94;-4.79;-8.60;10.02;-1.74;-23.74
2.94;-1.63;-14.27;38.99;1.52;-20.47
2.94;-2.40;-18.30;12.41;3.92;-14.92
2.94;-11.33;-16.66;-2.83;6.32;-15.68
-1.85;-8.06;-20.69;31.80;13.61;-20.47
-1.09;-7.30;-21.56;10.89;14.37;-11.65
5.34;-3.27;-11.11;1.20;16.01;-1.96
18.30;3.27;8.28;-0.44;15.14;7.73
-1.09;3.27;9.04;-3.70;9.58;8.49
-7.51;-1.63;13.94;-3.70;9.58;13.29
30.38;1.63;13.94;-6.86;10.35;18.19
-5.12;1.63;16.33;-10.89;19.17;15.79
1.31;-2.40;17.10;-2.83;14.37;22.98
-36.48;13.72;17.10;-14.92;-6.53;27.01
1.31;4.79;17.10;-2.07;1.52;22.98
2.94;4.03;18.73;-2.07;-17.86;11.76
0.54;5.66;11.54;-2.07;-37.13;-1.20
-25.26;-2.40;6.64;-2.07;-47.70;-1.96
-0.22;0.76;-8.60;1.96;-25.92;-12.41
1.31;4.03;-11.87;-0.44;-17.86;-22.11
-4.25;3.27;-11.87;-2.07;-3.38;-45.52
-2.72;-4.03;-21.56;0.33;3.05;-22.98
-7.51;-7.30;-18.30;6.86;16.77;-17.32
-1.09;-9.69;-18.30;44.65;6.32;-14.92
3.81;-5.66;-23.20;31.80;14.37;-18.08
2.94;-4.79;1.85;6.86;13.61;-7.62
6.97;1.63;-9.47;5.23;11.11;-4.36
2.94;-7.30;-2.18;-2.07;14.37;5.23
6.97;-28.97;5.88;-0.44;11.98;5.23
-0.22;0.76;10.67;-6.10;15.14;10.89
-5.12;1.63;11.54;10.89;-2.50;15.79
2.18;-5.66;14.70;-4.46;-4.90;16.55
-0.22;5.66;16.33;-2.07;-20.26;44.00
-5.12;5.66;16.33;0.33;-12.20;43.12
-0.22;2.40;12.31;-3.70;-4.90;42.36
-5.88;5.66;11.54;-7.73;5.55;14.92
-17.21;5.66;7.51;-1.20;16.77;4.46
1.31;4.79;-0.54;-1.20;16.01;-5.23
23.96;5.66;-3.05;2.83;14.37;-11.65
7.84;1.63;-0.54;0.33;13.61;-17.32
2.94;-2.40;-11.11;4.36;7.95;-15.68
1.31;-4.03;-12.63;1.96;5.55;-18.95
-8.28;-4.03;-3.81;6.86;6.32;-11.65
-1.09;23.30;-15.14;1.96;6.32;-10.02
3.81;-34.63;-26.35;12.41;5.55;-14.05
3.81;-0.00;-17.53;13.29;5.55;-4.36
4.57;2.40;-1.42;1.20;-3.38;2.07
-0.22;-6.43;-1.42;-1.20;-4.90;2.83
-1.09;-2.40;3.48;-2.83;-8.17;2.83
0.54;-2.40;26.03;-9.26;-6.53;26.24
1.31;4.03;18.73;-6.10;2.29;14.16
6.97;5.66;17.10;-2.83;5.55;12.52
4.57;4.03;17.10;2.83;3.92;19.82
2.18;1.63;18.73;1.96;6.32;44.00
-4.25;15.25;16.33;-5.23;4.68;26.24
2.94;5.66;13.07;-9.26;2.29;22.98
-5.12;5.66;5.88;-5.23;-11.43;0.44
-1.85;3.27;-1.42;-6.86;-14.59;-6.86
-5.88;27.33;-3.81;21.34;-18.62;-17.32
-1.85;-1.63;-6.21;-0.44;-18.62;-8.39
2.94;0.76;-9.47;-2.07;-18.62;-19.71
0.54;-7.30;-9.47;1.96;-7.41;-16.44
2.94;-7.30;-19.17;5.23;-4.90;-10.02
2.18;-6.43;-18.30;10.89;-6.53;-14.05
2.94;-7.30;-18.30;12.41;7.95;-5.23
2.94;33.00;-19.93;13.29;13.61;-4.36
0.54;-6.43;-9.47;10.89;28.86;2.07
-9.15;-4.79;-2.18;10.02;32.89;10.13
-1.85;-4.03;3.48;1.96;39.31;8.49
-5.12;-1.63;11.54;-0.44;42.58;-10.02
0.54;-25.81;17.10;-39.10;17.64;22.98
-1.85;-23.41;22.76;-13.29;-8.93;14.92
-1.09;4.03;22.00;-14.16;-27.55;19.82
27.12;0.76;13.94;-9.26;-27.55;22.98
4.57;5.66;14.70;-12.52;-24.28;21.34
2.94;5.66;11.54;-29.40;-20.26;14.16
-0.22;-2.40;4.25;-7.73;-21.02;1.20
28.75;-5.66;-1.42;10.89;-22.65;-10.02
1.31;12.85;-1.42;-3.70;-18.62;-18.95
-5.12;-0.00;-9.47;1.96;3.05;-18.95
2.18;4.03;-8.60;7.62;15.14;-18.08
0.54;-5.66;-8.60;6.86;6.32;-8.39
-1.09;-12.09;-22.32;5.23;-6.53;-17.32
-10.78;-8.06;-21.56;2.83;-14.59;-14.05
-1.09;-7.30;-23.20;10.89;-8.93;-17.32
36.05;-7.30;-19.17;11.65;0.65;-9.26
2.94;3.27;-10.24;5.99;-17.86;-1.96
2.18;0.76;-2.18;-0.44;11.11;3.70
2.18;0.76;-2.18;-0.44;8.71;7.73
-0.22;3.27;11.54;-10.13;7.95;13.29
-4.25;-3.27;13.07;-10.89;7.95;14.16
-4.25;-3.27;10.67;-5.23;6.32;18.19
-1.85;4.79;14.70;-10.89;-1.74;27.88
2.94;5.66;11.54;-2.83;2.29;24.61
-0.22;6.43;10.67;-4.46;3.92;27.01
1.31;5.66;13.94;-3.70;5.55;14.16
-4.25;-8.06;3.48;18.95;4.68;7.73
-1.09;5.66;-8.60;3.59;10.35;-1.96
-4.25;-3.27;-18.30;10.89;11.11;-12.41
-0.22;-0.00;-8.60;10.02;15.14;-14.92
-9.91;-2.40;-13.50;10.89;13.61;-17.32
16.66;-11.33;-12.63;9.26;7.95;-14.92
-1.85;-2.40;-29.62;10.89;4.68;-8.39
-1.85;0.76;-19.93;10.89;4.68;-14.92
-0.22;-6.43;-17.53;10.02;-2.50;-17.32
1.31;-5.66;-14.27;34.96;-3.38;-14.05
2.94;32.23;-9.47;-6.10;1.52;-1.20
3.81;2.40;-2.18;-2.07;-6.53;-0.33
3.81;0.76;0.98;-10.89;-14.59;2.83
2.94;-1.63;10.67;-13.29;-8.17;5.23
1.31;-0.00;13.94;-12.52;-8.93;8.49
18.30;1.63;22.00;-12.52;-17.86;8.49
-1.09;5.66;22.00;-6.10;-18.62;49.55
-5.88;5.66;4.25;0.33;-22.65;16.55
1.31;0.76;13.94;-2.07;-19.49;21.34
1.31;6.43;13.94;-16.55;1.52;18.95
-3.48;4.79;-0.54;12.41;17.64;7.73
-0.22;4.79;3.48;1.96;24.07;-2.83
-5.88;5.66;-5.44;6.86;31.25;-12.41
-2.72;3.27;-9.47;-14.16;30.49;-12.41
-5.12;-2.40;-9.47;5.99;24.07;-14.05
2.94;-0.00;-15.14;6.86;7.95;-14.05
5.34;-4.03;-19.17;1.96;-0.11;-9.26
32.78;-3.27;-21.56;3.59;-11.43;-12.41
-1.09;-7.30;-21.56;6.86;-20.26;-22.98
2.94;-6.43;-18.30;2.83;-25.92;-15.68
-9.91;-4.03;-13.50;-0.44;-32.34;-9.26
-5.88;-1.63;-0.54;-0.44;-24.28;-5.23
-0.22;-4.79;0.98;-12.52;-21.89;2.83
2.94;-1.63;11.54;-6.10;-9.80;10.89
2.18;-5.66;17.10;-2.07;0.65;10.89
39.20;4.79;16.33;-6.86;5.55;16.55
3.81;4.79;19.60;-6.86;17.64;24.61
2.94;8.06;16.33;3.59;31.25;36.70
2.18;3.27;18.73;10.02;32.13;37.46
-5.88;-17.75;13.94;34.96;51.40;-1.96
0.54;2.40;10.67;1.96;29.73;6.86
0.54;3.27;0.98;1.96;22.43;2.83
2.18;-2.40;-1.42;-2.83;10.35;-10.02
0.54;3.27;-7.08;3.59;-6.53;-14.05
2.18;-1.63;-8.60;1.96;3.92;-22.11
0.54;-0.00;-8.60;-0.44;-30.71;-23.74
-8.28;-5.66;-16.66;1.96;-25.92;-28.53
-5.12;1.63;-18.30;-1.20;-25.05;-22.98
3.81;-5.66;-23.96;10.89;-19.49;-22.98
8.60;-4.03;-19.93;1.96;-14.59;-18.95
2.94;-6.43;-11.87;10.89;-7.41;-9.26
-1.85;-7.30;-2.18;-28.64;-4.90;-1.20
-1.85;-1.63;-1.42;-2.07;0.65;14.16
-4.25;5.66;10.67;-9.26;6.32;-11.65
-1.09;-7.30;15.57;-9.26;31.25;-5.99
-0.22;-2.40;22.00;-6.86;6.32;20.58
2.18;2.40;18.73;-2.07;11.11;16.55
-1.09;5.66;13.07;-6.86;12.74;27.01
-4.25;-14.48;13.07;-2.07;18.40;27.88
-19.60;4.79;13.07;-2.07;34.52;15.79
-1.09;5.66;9.04;7.62;19.17;2.83
2.18;5.66;3.48;4.36;5.55;1.20
2.94;5.66;-1.42;8.39;-4.14;-9.26
2.94;2.40;-4.57;10.89;16.77;-15.68
0.54;3.27;-3.81;11.65;-10.56;-15.68
26.35;4.03;-9.47;0.33;-12.20;-20.47
0.54;-2.40;-15.90;36.59;-12.20;-8.39
26.35;-2.40;-19.17;3.59;-3.38;-18.08
2.94;3.27;-20.69;6.86;4.68;-19.71
6.97;-4.79;-21.56;0.33;27.22;-5.99
2.94;-28.97;-6.21;-0.44;15.14;34.30
-7.51;12.85;-0.54;-2.07;7.08;3.70
4.57;-1.63;4.25;-35.07;0.65;8.49
0.54;4.79;6.64;-10.89;-12.96;16.55
0.54;4.79;11.54;-14.92;-16.23;10.89
-1.85;0.76;13.07;-12.52;-12.20;20.58
19.93;4.03;13.07;-7.73;-8.17;23.85
-1.85;-6.43;10.67;-9.26;-11.43;27.88
-36.48;5.66;11.54;-2.07;-4.14;26.24
-6.75;4.03;11.54;-2.07;0.65;11.76
23.96;-0.00;4.25;3.59;5.55;0.44
-1.09;1.63;16.33;-1.20;5.55;-11.65
0.54;3.27;-2.18;-1.20;3.05;-22.98
5.34;1.63;-8.60;5.23;13.61;-23.74
4.57;-1.63;-14.27;16.44;9.58;-30.17
2.94;4.03;-12.63;-14.16;6.32;-22.98
-9.91;-4.03;-22.32;12.41;-0.11;-7.62
-1.09;-4.79;-18.30;10.89;-8.93;-12.41
-0.22;0.76;-25.59;6.86;-14.59;-12.41
2.94;-3.27;-18.30;10.02;-4.90;-9.26
2.94;-3.27;-35.28;6.86;-3.38;2.83
-7.51;-8.82;-1.42;-17.32;9.58;13.29
-5.12;-4.03;0.98;-5.23;6.32;8.49
-5.12;-3.27;12.31;-6.86;6.32;18.19
-4.25;4.03;28.42;-10.89;7.95;17.32
19.93;3.27;16.33;-14.16;10.35;27.88
-7.51;3.27;13.94;-10.13;7.95;16.55
2.94;3.27;13.94;-18.19;7.08;20.58
-1.85;9.69;19.60;-6.10;7.95;23.85
-30.06;3.27;11.54;8.39;6.32;10.89
3.81;0.76;-1.42;-7.73;5.55;3.70
-28.42;2.40;3.48;1.96;6.32;-9.26
2.94;1.63;-0.54;-2.07;32.13;-40.62
3.81;8.06;-3.05;6.86;22.43;-19.71
2.94;-4.79;-11.11;6.86;30.49;-22.98
18.30;1.63;-8.60;3.59;7.95;-14.92
-5.88;-3.27;-15.90;10.02;17.64;-18.08
2.94;-7.30;-21.56;8.39;-20.26;-14.05
-7.51;3.27;-23.20;10.89;-33.11;-22.11
8.60;-3.27;-16.66;10.89;-46.06;-18.08
4.57;7.19;-11.87;1.20;-58.15;2.07
4.57;-2.40;-6.21;-2.83;-58.91;4.46
2.94;-1.63;-8.60;-2.07;-36.37;5.23
-1.09;5.66;7.51;-6.86;-12.20;10.13
-9.91;16.12;13.07;-7.73;14.37;11.76
-8.28;0.76;19.60;-10.13;29.73;10.89
-9.91;4.79;15.57;-4.46;36.92;11.76
-5.88;-25.81;13.94;-6.86;24.07;23.85
-7.51;0.76;16.33;-2.83;19.17;22.98
-1.85;4.79;13.07;2.83;16.01;18.95
2.94;3.27;0.22;-2.07;1.52;2.07
-1.09;-0.00;0.22;2.83;5.55;-5.99
2.18;-20.91;-2.18;7.62;6.32;-14.05
2.94;0.76;-10.24;10.02;7.95;-24.50
2.94;-3.27;-5.44;-2.07;3.92;-18.95
1.31;-4.79;-11.11;-4.46;3.92;-20.47
0.54;-7.30;-8.60;-2.07;14.37;-10.02
-17.21;-4.79;-17.53;6.86;4.68;-25.37
-0.22;-3.27;-35.28;6.86;5.55;5.23
-5.12;-8.06;-16.66;5.99;6.32;-10.02
2.94;5.66;-8.60;26.14;-3.38;-0.33
5.34;-4.03;-3.81;-0.44;-8.17;8.49
2.94;-6.43;-0.54;-4.46;-2.50;7.73
11.87;-4.79;9.04;1.20;3.05;11.76
-2.72;5.66;18.73;-1.20;4.68;43.12
2.94;4.79;10.67;-9.26;6.32;15.79
-2.72;12.85;16.33;-2.83;7.08;27.88
6.97;1.63;17.10;-3.70;4.68;30.27
2.94;-3.27;13.07;-18.95;-12.20;28.64
2.94;4.03;15.57;-4.46;0.65;41.49
-14.81;3.27;5.88;5.23;0.65;3.70
-1.09;-0.00;-1.42;0.33;4.68;-7.62
-9.15;10.45;-4.57;-2.83;6.32;-10.89
-2.72;-2.40;-6.21;8.39;5.55;-18.95
5.34;1.63;-11.11;11.65;22.43;-22.98
0.54;-2.40;-8.60;8.39;31.25;-22.98
-8.28;-1.63;-14.27;13.29;20.04;-14.05
0.54;-7.30;-1.42;10.89;-18.62;-35.83
0.54;-7.30;-23.20;-1.20;-50.09;-14.92
2.94;-6.43;-19.17;34.96;-54.89;-4.36
0.54;-2.40;-11.87;3.59;-40.40;-3.59
-1.85;-7.30;0.22;5.23;-23.52;2.07
-6.75;-0.00;0.22;-3.70;-6.53;10.13
34.41;2.40;26.03;-9.26;5.55;14.16
-9.15;4.03;13.94;-13.29;5.55;14.16
-6.75;0.76;15.57;-13.29;3.92;14.92
-4.25;5.66;16.33;-5.23;4.68;26.24
-1.09;3.27;13.94;-2.07;8.71;34.30
2.94;6.43;11.54;-6.10;16.01;28.64
-1.09;0.76;8.28;-7.73;18.40;18.19
2.94;0.76;4.25;1.96;29.73;6.86
2.18;0.76;2.61;3.59;31.25;-4.36
2.18;4.79;-8.60;0.33;31.25;-12.41
2.94;5.66;-13.50;8.39;18.40;-11.65
-1.85;3.27;-11.87;8.39;5.55;-22.98
-4.25;-0.00;-9.47;3.59;-4.14;-22.98
0.54;-5.66;-15.14;12.41;-16.99;-21.34
2.18;-5.66;-18.30;10.89;-27.55;-25.37
-0.22;-20.15;-21.56;10.89;-33.98;-25.37
2.18;8.06;-16.66;6.86;-21.02;-15.68
4.57;3.27;-6.21;-1.20;-25.05;-5.99
2.94;-8.06;-27.99;-2.07;-17.86;2.83
2.94;1.63;8.28;-2.07;2.29;11.76
5.34;6.43;8.28;-2.83;5.55;22.98
-22.87;1.63;16.33;-6.10;10.35;6.86
-3.48;5.66;13.94;-0.44;5.55;17.32
3.81;8.06;9.91;-4.46;19.17;54.45
-5.12;5.66;12.31;-18.95;-8.17;26.24
-21.24;7.19;13.94;-10.89;-1.74;26.24
1.31;6.43;11.54;-10.13;4.68;18.19
2.94;4.79;10.67;-4.46;-8.17;2.83
0.54;0.76;23.63;-2.07;17.64;-5.23
-3.48;3.27;16.33;-1.20;14.37;-5.99
-4.25;-2.40;12.31;3.59;13.61;-17.32
13.39;0.76;10.67;2.83;11.11;-22.98
2.94;2.40;11.54;-3.70;7.95;-15.68
2.94;4.03;4.25;10.02;3.92;-10.89
-1.85;-2.40;0.22;10.89;3.05;-18.95
7.84;-8.06;-3.05;6.86;1.52;-20.47
-1.85;-4.03;-1.42;9.26;6.32;-14.05
-1.85;-6.43;9.04;1.96;4.68;-1.96
4.57;12.85;9.91;-2.07;3.92;4.46
2.18;-1.63;18.73;-2.83;-1.74;8.49
-1.09;-1.63;15.57;-6.10;0.65;11.76
-4.25;2.40;18.73;-0.44;0.65;5.23
-2.72;0.76;25.16;-10.89;4.68;14.92
1.31;17.75;16.33;-2.83;4.68;26.24
3.81;6.43;17.10;-10.13;5.55;28.64
4.57;4.79;7.51;-6.86;-6.53;28.64
-5.88;6.43;9.91;18.95;-12.20;19.82
0.54;2.40;2.61;2.83;-8.93;3.70
0.54;4.79;0.22;2.83;-12.20;-5.99
-2.72;0.76;-27.22;0.33;-20.26;-10.89
-1.85;-1.63;-15.90;-3.70;-25.05;-17.32
-17.97;-2.40;-15.14;2.83;-21.89;-10.02
0.54;-2.40;-15.90;1.96;-8.93;-22.98
-8.28;-2.40;-26.35;-15.79;18.40;-14.92
28.75;-3.27;-27.22;11.65;12.74;-18.08
2.18;-3.27;-29.62;6.86;10.35;-22.98
6.97;-5.66;-27.99;2.83;16.01;-12.41
5.34;-3.27;-16.66;6.86;7.95;-1.20
8.60;0.76;-11.11;-9.26;14.37;7.73
-1.85;-1.63;-3.05;-0.44;11.98;11.76
2.94;2.40;6.64;-5.23;11.11;12.52
-5.88;1.63;10.67;-6.86;6.32;11.76
-1.09;5.66;11.54;-14.16;5.55;17.32
0.54;1.63;11.54;-10.89;0.65;19.82
-36.48;4.03;5.88;-6.10;9.58;23.85
-8.28;6.43;13.07;-3.70;19.17;30.27
-5.12;5.66;13.07;-3.70;27.22;19.82
6.97;9.69;0.22;2.83;20.04;-18.95
-1.09;3.27;-1.42;-10.13;3.05;-6.86
-5.12;-4.79;-10.24;1.96;-16.99;-9.26
1.31;4.03;-13.50;-14.92;3.05;-14.05
2.18;1.63;-17.53;5.23;-20.26;-5.99
0.54;-0.00;-15.90;-9.26;-12.20;-18.95
-1.85;-1.63;-19.17;2.83;-6.53;-13.29
1.31;-30.60;-26.35;0.33;-3.38;-17.32
-21.24;-0.00;-27.22;1.96;15.14;-22.98
2.94;1.63;-26.35;-6.86;-14.59;-22.11
15.90;-12.85;-14.27;-2.83;-20.26;-12.41
0.54;-3.27;-5.44;-6.86;-17.86;2.83
0.54;5.66;-3.81;-1.20;-20.26;11.76
2.94;-1.63;5.88;-2.83;-27.55;12.52
8.60;1.63;11.54;-6.10;-17.86;5.23
-5.12;0.76;11.54;-0.44;10.35;12.52
-10.78;2.40;10.67;10.89;25.70;23.85
-5.88;5.66;6.64;-27.01;27.22;27.01
-2.72;1.63;1.85;0.33;7.08;27.01
-7.51;1.63;4.25;-2.83;-4.14;40.73
-4.25;1.63;4.25;2.83;-6.53;5.23
-8.28;-2.40;4.25;-0.44;-19.49;-7.62
-0.22;1.63;-9.47;18.08;3.05;-11.65
-2.72;-7.30;-15.90;5.23;5.55;-15.68
0.54;-17.75;-14.27;6.86;6.32;-20.47
2.94;-1.63;-12.63;3.59;13.61;-22.11
0.54;-3.27;-17.53;8.39;19.17;-10.02
20.69;-1.63;-22.32;10.02;14.37;-9.26
4.57;-24.18;-26.35;6.86;10.35;-12.41
-33.32;-6.43;-24.72;9.26;16.01;-7.62
-1.09;1.63;5.88;3.59;18.40;-1.20
-15.57;-2.40;-1.42;5.99;16.01;3.70
0.54;-4.79;-1.42;-3.70;7.08;21.34
-4.25;2.40;16.33;-2.83;4.68;18.19
2.94;20.91;11.54;6.86;0.65;14.16
-10.78;5.66;24.39;-6.10;-1.74;11.76
-9.91;4.03;13.07;-5.23;1.52;20.58
-5.88;5.66;10.67;-6.10;15.14;19.82
2.18;1.63;13.07;-3.70;-11.43;24.61
0.54;4.79;9.91;-3.70;-11.43;13.29
-5.88;0.76;0.98;-6.10;-15.46;2.07
2.94;3.27;-6.21;-2.83;-15.46;10.89
0.54;-3.27;-5.44;-12.52;-9.80;-20.47
-2.72;0.76;4.25;-1.20;-7.41;-18.95
2.94;-4.03;-11.11;3.59;-3.38;-18.95
2.94;-0.76;-8.60;5.99;-4.90;-17.32
1.31;-4.79;-18.30;8.39;-8.17;-17.32
2.94;-3.27;-13.50;0.33;-15.46;-10.89
-5.88;-7.30;-23.20;7.62;-11.43;-22.98
21.45;-5.66;3.48;8.39;-12.20;-14.92
2.18;-0.76;5.88;0.33;-1.74;6.86
2.18;-18.51;0.98;1.96;3.92;6.86
2.18;-7.30;4.25;6.86;9.58;16.55
2.18;-3.27;16.33;-9.26;13.61;12.52
-1.09;4.79;19.60;-6.86;9.58;15.79
-5.12;5.66;18.73;-6.10;11.11;18.19
6.97;26.57;22.00;-27.01;16.77;21.34
-2.72;4.79;19.60;-4.46;10.35;21.34
-30.93;5.66;18.73;-7.73;-7.41;23.85
-1.85;-4.79;13.07;-10.13;12.74;8.49
2.18;4.79;24.39;-5.23;16.01;2.83
1.31;1.63;0.22;1.96;23.20;-7.62
-9.15;1.63;-1.42;1.96;19.17;-11.65
1.31;-5.66;-3.81;10.02;11.11;-17.32
25.48;1.63;-8.60;8.39;-2.50;-20.47
2.94;-0.00;-12.63;8.39;-17.86;-22.11
0.54;-5.66;-27.22;6.86;-23.52;-12.41
-4.25;-5.66;-19.17;10.89;-29.08;-14.92
2.94;-6.43;-27.22;19.71;-29.95;-19.71
2.18;-7.30;-15.90;10.89;-25.92;-8.39
-22.87;-7.30;-10.24;5.99;-14.59;-1.20
-2.72;-5.66;-21.56;-2.07;5.55;2.83
-4.25;0.76;4.25;23.74;15.14;8.49
-1.85;-4.79;12.31;-4.46;18.40;13.29
7.84;0.76;16.33;-10.89;22.43;20.58
1.31;6.43;16.33;-9.26;22.43;13.29
-20.36;5.66;7.51;-7.73;24.07;17.32
2.94;4.03;13.94;-1.20;22.43;28.64
-9.91;5.66;5.01;-2.83;17.64;31.04
2.94;1.63;13.94;1.96;5.55;18.95
27.12;5.66;11.54;-2.07;-14.59;5.23
2.94;4.79;-1.42;-14.92;-20.26;-1.96
-22.00;3.27;-1.42;-2.07;-20.26;-14.05
2.94;-1.63;-3.05;-2.07;-11.43;-13.29
2.18;6.43;-13.50;10.02;-4.90;-22.98
-1.09;1.63;-8.60;-1.20;-7.41;-20.47
-13.94;-3.27;-16.66;-0.44;-9.80;-18.95
-7.51;-4.79;-19.93;10.02;-29.95;-19.71
-5.88;-7.30;-27.22;10.02;-9.80;-23.74
-8.28;-7.30;-25.59;6.86;-4.90;-1.96
2.18;-5.66;-4.57;8.39;-0.11;-5.99
-34.96;-1.63;-3.05;0.33;5.55;6.10
-4.25;-5.66;-18.30;-2.07;5.55;10.89
-19.60;3.27;9.04;-3.70;5.55;26.24
-4.25;4.79;13.07;-9.26;3.92;11.76
-35.72;1.63;17.10;-4.46;5.55;15.79
-0.22;19.28;15.57;-2.83;5.55;24.61
-26.90;33.87;16.33;0.33;1.52;26.24
2.94;5.66;12.31;-2.07;7.95;30.27
5.34;4.03;26.79;0.33;7.08;16.55
5.34;32.23;9.91;-2.07;10.35;7.73
-9.15;3.27;3.48;-0.44;8.71;-1.96
6.97;14.48;-1.42;-14.16;30.49;-10.02
5.34;-1.63;-1.42;10.89;23.20;-17.32
2.94;-3.27;-6.21;18.08;18.40;-25.37
15.03;-4.79;-12.63;9.26;-4.90;-22.98
-2.72;-8.06;-16.66;10.02;-30.71;-18.08
-1.85;0.76;-18.30;5.99;-34.74;-22.98
-1.85;0.76;-21.56;-24.61;-29.08;-22.98
-4.25;-9.69;-27.99;-2.07;-17.86;-34.96
-1.85;-6.43;-12.63;-2.83;-4.90;-9.26
-10.78;-2.40;-1.42;-1.20;7.08;28.64
-5.88;3.27;2.61;-7.73;7.08;11.76
2.94;42.69;12.31;-12.52;5.55;20.58
-6.75;-3.27;17.10;-12.52;7.08;16.55
-1.09;-8.82;22.76;-13.29;9.58;17.32
-1.09;17.75;17.10;3.59;6.32;-5.99
16.66;0.76;11.54;-4.46;5.55;38.33
2.94;5.66;12.31;-6.86;-4.90;21.34
0.54;2.40;11.54;-5.23;1.52;15.79
14.27;4.03;2.61;-1.20;4.68;-0.33
-22.87;2.40;1.85;-2.07;-3.38;-11.65
2.18;-2.40;-3.81;-3.70;-11.43;-14.05
4.57;-4.03;-8.60;6.86;-9.80;-22.98
15.90;-1.63;-9.47;0.33;-10.56;6.86
11.00;5.66;-11.87;6.86;-15.46;-21.34
4.57;4.03;-18.30;5.99;-8.93;-10.02
4.57;-0.00;-15.90;1.96;-6.53;-11.65
2.94;-7.30;-23.20;8.39;19.17;-21.34
1.31;-5.66;-22.32;10.02;7.08;-10.89
0.54;-0.76;-2.18;-1.20;10.35;-5.23
0.54;13.72;-0.54;1.96;9.58;10.13
15.03;-8.06;0.22;-1.20;5.55;11.76
-19.60;4.03;12.31;-2.83;4.68;11.76
3.81;-0.00;19.60;-3.70;1.52;8.49
2.94;5.66;23.63;-3.70;1.52;14.92
-4.25;26.57;20.36;-4.46;3.92;22.98
-10.78;2.40;17.10;-0.44;5.55;27.88
-5.12;4.79;13.94;-1.20;6.32;28.64
-1.85;-20.91;13.07;5.23;11.98;16.55
2.94;5.66;4.25;5.23;17.64;3.70
36.05;4.79;0.22;0.33;30.49;1.20
-1.09;1.63;-1.42;-0.44;31.25;-14.05
7.84;5.66;9.04;8.39;16.77;-25.37
5.34;-16.88;-6.21;10.89;5.55;-10.89
-0.22;-1.63;10.67;10.89;-12.96;-14.05
0.54;2.40;-12.63;11.65;-32.34;-14.05
-1.85;-1.63;-19.93;-10.13;-25.92;-18.95
-1.09;-4.03;-25.59;3.59;-19.49;2.83
11.87;-0.00;-19.17;-2.07;-14.59;-10.02
-5.88;-7.30;-12.63;-9.26;-11.43;-25.37
1.31;-2.40;-3.81;-6.86;-7.41;11.76
2.94;0.76;0.98;-12.52;-3.38;7.73
-1.09;-0.00;12.31;-14.16;-9.80;9.26
-23.63;3.27;13.94;-10.89;-17.86;7.73
-36.48;-1.63;-9.47;-14.92;-21.02;8.49
-2.72;4.03;19.60;-9.26;-20.26;12.52
-17.21;2.40;11.54;-2.07;-20.26;14.92
2.18;5.66;19.60;-6.10;-1.74;27.01
-30.93;6.43;11.54;-6.86;7.95;10.13
-5.12;5.66;0.22;-1.20;20.80;-18.95
14.27;0.76;-0.54;2.83;12.74;-1.20
-29.29;2.40;-2.18;5.23;39.31;-8.39
2.94;-33.00;-3.05;12.41;36.15;-10.02
-2.72;1.63;-3.81;10.89;22.43;14.92
4.57;-4.79;4.25;8.39;9.58;-8.39
2.94;0.76;-13.50;5.23;-20.26;-6.86
2.94;-6.43;-16.66;0.33;3.92;-10.02
-1.09;-17.75;-27.22;2.83;0.65;-18.95
-1.09;-7.30;-27.99;3.59;-8.17;-11.65
-1.09;-6.43;-8.60;-2.07;-15.46;-5.23
16.66;-3.27;-4.57;-4.46;-16.23;5.23
-1.09;-0.76;3.48;-2.83;-6.53;13.29
1.31;-0.00;11.54;-10.13;-14.59;13.29
-1.09;1.63;13.07;-9.26;2.29;14.16
0.54;4.03;19.60;-9.26;1.52;14.92
-4.25;3.27;13.94;-6.10;3.05;23.85
-0.22;1.63;13.07;-7.73;14.37;6.86
2.94;-3.27;13.94;-4.46;5.55;29.40
2.94;0.76;11.54;-2.07;5.55;16.55
19.93;5.66;-1.42;8.39;4.68;2.83
2.94;1.63;0.98;-0.44;-11.43;-8.39
19.93;4.03;-0.54;8.39;-9.80;-15.68
2.94;14.48;-5.44;-2.83;-7.41;-22.98
13.39;-1.63;-12.63;1.96;-8.17;-28.53
-5.12;-2.40;-15.14;0.33;-1.74;-22.98
2.94;3.27;-19.17;5.99;-3.38;-22.11
-5.88;-15.35;-23.20;5.99;-3.38;-17.32
-5.12;-1.63;-23.20;8.39;3.05;-15.68
2.18;-5.66;-20.69;6.86;5.55;-12.41
24.72;-1.63;-11.11;-2.07;29.73;2.83
2.18;-6.43;-2.18;-2.07;3.92;7.73
-5.12;-3.27;0.98;-3.70;5.55;16.55
3.81;-2.40;12.31;-6.10;4.68;18.19
2.94;0.76;13.07;-6.10;4.68;18.19
-1.09;4.79;22.76;-6.10;19.17;14.16
-11.54;-2.40;20.36;-6.10;26.46;24.61
2.94;-8.82;13.07;-2.83;31.25;28.64
-24.39;0.76;17.10;-4.46;10.35;28.64
2.18;4.79;13.94;-4.46;-4.90;18.95
-1.85;5.66;9.04;14.05;-34.74;2.83
1.31;5.66;4.25;-1.20;-14.59;-10.89
-0.22;-4.03;-1.42;-1.20;-20.26;-22.98
0.54;3.27;-8.60;0.33;-13.83;-22.98
-9.15;-5.66;-10.24;-6.10;-16.23;-22.98
0.54;-5.66;-9.47;-5.23;-1.74;-22.11
-0.22;-1.63;-18.30;5.99;-6.53;-11.65
-1.85;-5.66;-21.56;7.62;5.55;-13.29
2.94;-2.40;-23.20;18.95;-3.38;-14.92
-4.25;-5.66;-32.02;6.86;-4.14;-10.89
2.94;-2.40;-12.63;1.96;-4.90;7.73
-15.57;12.85;-1.42;-1.20;-16.23;5.23
-1.85;5.66;4.25;-2.07;-16.23;11.76
-6.75;-8.82;7.51;-32.67;-6.53;13.29
11.00;-20.91;11.54;-31.91;4.68;11.76
-1.09;7.19;14.70;-9.26;5.55;8.49
-1.85;5.66;12.31;-4.46;13.61;17.32
-10.78;-6.43;26.79;-6.86;16.01;19.82
-11.54;0.76;9.04;-6.86;16.77;3.70
6.97;4.79;15.57;-2.83;19.17;14.92
0.54;3.27;1.85;-2.07;7.95;23.85
6.97;5.66;0.98;0.33;5.55;-4.36
-18.84;3.27;-1.42;5.99;5.55;-12.41
3.81;0.76;-9.47;3.59;3.92;-18.08
2.18;-1.63;-16.66;10.02;4.68;-23.74
2.94;-6.43;-13.50;8.39;7.95;-12.41
11.87;-5.66;-22.32;9.26;8.71;-9.26
1.31;-3.27;-21.56;35.83;3.92;-12.41
0.54;-1.63;-21.56;12.41;1.52;-22.11
0.54;9.69;-22.32;10.89;3.05;-11.65
2.18;-3.27;-11.87;5.23;-0.11;2.07
-5.12;-5.66;0.22;-0.44;-4.90;3.70
5.34;-1.63;2.61;-9.26;-7.41;10.13
4.57;-1.63;11.54;-9.26;-10.56;11.76
-4.25;-3.27;13.07;-14.16;-2.50;10.13
9.37;-3.27;13.07;-14.92;-7.41;13.29
-1.09;-5.66;11.54;-12.52;-3.38;18.95
-0.22;3.27;4.25;-10.89;-1.74;27.01
1.31;4.03;2.61;-6.86;-0.11;27.88
-4.25;4.79;10.67;0.33;13.61;8.49
0.54;4.03;5.88;3.59;10.35;2.83
31.15;4.03;-11.87;11.65;6.32;-10.02
0.54;-1.63;1.85;9.26;-3.38;-13.29
1.31;0.76;-6.21;0.33;-12.20;-10.89
2.94;-4.79;-15.90;0.33;-14.59;-22.98
-0.22;0.76;-9.47;-14.92;-1.74;-18.08
-1.85;1.63;-15.14;-2.83;-11.43;-36.59
-1.09;-4.79;-17.53;0.33;-8.93;-10.02
-1.85;-7.30;-5.44;6.86;-2.50;-13.29
-6.75;-7.30;-16.66;1.20;-6.53;-10.89
0.54;-6.43;-11.11;-2.07;-2.50;-5.99
2.18;-7.30;0.98;-1.20;4.68;21.34
-6.75;-4.79;10.67;0.33;6.32;4.46
1.31;-0.00;10.67;5.23;12.74;9.26
-0.22;5.66;13.07;-1.20;12.74;23.85
2.94;31.36;22.76;14.05;-4.90;13.29
24.72;-1.63;22.76;-12.52;5.55;22.98
6.97;-11.33;12.31;-10.89;2.29;26.24
1.31;0.76;13.94;-13.29;-5.77;28.64
11.87;4.79;12.31;2.83;0.65;20.58
4.57;5.66;3.48;-6.86;-4.90;6.86
0.54;6.43;2.61;-1.20;-1.74;-5.99
-1.09;-3.27;-1.42;3.59;-4.90;-15.68
0.54;4.79;5.88;1.96;2.29;-10.89
8.60;0.76;-7.08;3.59;7.08;-17.32
-1.09;-4.79;-8.60;9.26;9.58;-46.28
-1.09;-4.79;-14.27;10.89;5.55;10.89
-34.09;-1.63;-16.66;-16.55;-1.74;-14.92
-9.91;-3.27;-23.20;8.39;-7.41;-21.34
-5.12;-6.43;-18.30;10.89;-15.46;-10.02
-1.09;-25.81;-8.60;5.23;-20.26;-0.33
16.66;-0.00;-1.42;-2.07;-29.08;6.86
6.97;-1.63;7.51;-6.10;-25.05;7.73
-9.91;1.63;10.67;-14.92;-8.93;14.16
1.31;5.66;15.57;-14.92;5.55;11.76
-2.72;1.63;21.13;-12.52;19.17;16.55
2.94;3.27;16.33;-10.13;24.07;26.24
8.60;5.66;17.10;-1.20;19.17;42.36
-1.09;6.43;22.00;-2.07;13.61;26.24
-6.75;4.03;16.33;-2.07;7.08;16.55
-5.12;5.66;9.04;-2.07;4.68;6.10
-1.09;23.30;0.98;8.39;5.55;-7.62
-0.22;-1.63;-1.42;-22.22;5.55;-18.95
0.54;-0.00;-7.08;8.39;7.08;-20.47
0.54;0.76;-10.24;6.86;14.37;-23.74
2.94;-2.40;-11.87;12.41;32.13;-23.74
2.18;-3.27;-14.27;2.83;20.80;-14.92
-5.88;-1.63;-17.53;12.41;5.55;-14.92
2.94;-3.27;-25.59;8.39;-11.43;-20.47
-26.90;-1.63;-19.93;6.86;-21.02;-7.62
1.31;-4.03;-18.30;1.20;-23.52;0.44
-5.88;0.76;-3.81;-4.46;7.95;7.73
2.18;1.63;2.61;-4.46;-14.59;14.16
1.31;3.27;7.51;-9.26;5.55;5.23
-2.72;1.63;14.70;-13.29;-17.86;10.13
3.81;4.03;14.70;-40.73;-14.59;11.76
13.39;-0.00;20.36;-10.89;-12.20;16.55
-5.12;-2.40;12.31;-10.13;-5.77;23.85
-5.12;-1.63;-8.60;-6.86;-6.53;22.22
-4.25;5.66;10.67;-3.70;-6.53;28.64
8.60;4.03;9.91;-3.70;-0.11;0.44
-4.25;-0.00;-23.96;-2.07;-29.95;-9.26
3.81;4.03;-2.18;2.83;-3.38;-22.11
2.18;-8.06;-6.21;4.36;2.29;-22.98
2.94;-7.30;-10.24;0.33;5.55;-21.34
5.34;-0.00;-8.60;9.26;5.55;-18.95
3.81;-4.79;-19.93;12.41;10.35;-10.02
-28.42;-4.79;-12.63;13.29;22.43;-16.44
-36.48;-8.82;-24.72;13.29;32.89;-14.05
2.94;-9.69;-19.93;10.02;34.52;-30.17
2.94;-4.79;-8.60;4.36;29.73;1.20
23.96;-5.66;-2.18;3.59;-16.23;15.79
3.81;3.27;2.61;1.96;-8.17;31.04
15.90;4.03;9.91;0.33;-15.46;13.29
0.54;-2.40;11.54;-7.73;-4.14;3.70
-8.28;3.27;17.10;18.95;-3.38;10.13
-8.28;-12.09;19.60;-24.61;1.52;21.34
2.18;8.06;13.94;-3.70;-4.90;21.34
1.31;3.27;14.70;-10.89;3.92;23.85
-4.25;4.79;13.94;-7.73;-11.43;12.52
27.12;-4.79;7.51;-2.07;-8.93;1.20
-6.75;-3.27;3.48;-0.44;-5.77;-5.23
-7.51;3.27;-3.81;-1.20;-16.23;-14.92
17.42;-24.18;-11.87;16.44;-3.38;-20.47
-1.09;-0.00;-13.50;-14.16;-6.53;-20.47
-1.85;1.63;-14.27;4.36;-3.38;-14.05
-1.85;-6.43;-21.56;6.86;-4.14;-10.02
-30.93;-3.27;-19.17;8.39;3.92;-11.65
5.34;-0.00;-23.20;10.02;7.08;-15.68
5.34;-8.82;-15.90;10.89;13.61;-6.86
8.60;-4.79;-4.57;10.89;13.61;1.20
3.81;-10.45;-1.42;13.29;24.07;14.16
-17.21;-18.51;3.48;-10.89;20.80;16.55
-0.22;-0.00;11.54;-6.86;8.71;27.88
-22.87;4.79;15.57;-12.52;-4.90;16.55
2.94;4.03;36.48;-14.16;-14.59;28.64
-7.51;5.66;17.10;-15.79;-18.62;-12.41
-2.72;4.03;-9.47;-10.89;-11.43;21.34
-4.25;0.76;13.94;-9.26;-4.90;20.58
0.54;5.66;10.67;-9.26;-21.89;10.13
0.54;5.66;3.48;1.96;-1.74;0.44
2.94;7.19;-1.42;6.86;-6.53;-8.39
-1.85;0.76;-6.21;11.65;2.29;-17.32
-1.09;1.63;-12.63;6.86;5.55;-14.92
0.54;-6.43;-10.24;10.89;11.11;-17.32
2.94;-11.33;-13.50;7.62;-8.93;-12.41
4.57;-2.40;-18.30;6.86;13.61;-4.36
2.94;-3.27;-22.32;3.59;22.43;-7.62
1.31;-6.43;-24.72;7.62;23.20;-14.05
5.34;-5.66;-17.53;10.89;7.08;-6.86
2.94;15.25;-7.08;2.83;-12.20;2.07
-2.72;-1.63;-16.66;3.59;-22.65;3.70
-0.22;-2.40;3.48;-2.07;-34.74;12.52
-2.72;-3.27;-14.27;-4.46;-34.74;6.86
-8.28;3.27;15.57;-6.10;-20.26;7.73
-6.75;-3.27;23.63;-4.46;-8.93;6.86
7.84;12.85;20.36;-14.92;2.29;11.76
3.81;5.66;13.94;-6.86;-4.90;11.76
-1.85;5.66;11.54;-6.86;-16.23;14.92
0.54;5.66;10.67;-7.73;-14.59;6.86
0.54;4.79;2.61;-2.83;-5.77;-5.99
2.94;3.27;-1.42;-6.10;5.55;-5.99
2.94;5.66;-18.30;-0.44;10.35;-19.71
1.31;-6.43;-6.21;-0.44;16.77;-17.32
0.54;-6.43;-15.90;-2.83;28.86;-20.47
-1.09;2.40;-12.63;-0.44;25.70;-14.92
2.94;1.63;-19.17;5.99;25.70;-10.02
-2.72;-4.79;-21.56;10.89;5.55;-8.39
0.54;-4.79;-23.20;9.26;4.68;-14.05
5.34;-5.66;-18.30;27.77;3.05;-6.86
2.94;-2.40;-11.87;5.23;-1.74;-1.20
24.72;-2.40;-4.57;3.59;-20.26;6.86
-5.88;-4.79;4.25;-2.83;-6.53;11.76
5.34;1.63;11.54;-2.83;-4.90;5.23
14.27;-1.63;13.07;-13.29;-6.53;13.29
1.31;5.66;35.61;-6.10;-4.90;19.82
-13.94;10.45;18.73;-32.67;-4.14;19.82
-5.12;6.43;15.57;-6.10;0.65;29.40
-7.51;1.63;16.33;-2.07;17.64;28.64
-4.25;5.66;14.70;-6.10;12.74;18.19
-4.25;5.66;7.51;3.59;26.46;6.10
3.81;19.28;2.61;0.33;16.77;-7.62
2.94;1.63;-14.27;6.86;5.55;-11.65
30.38;-2.40;-6.21;9.26;-1.74;-21.34
5.34;1.63;-40.08;5.99;-4.90;-22.98
-1.09;-2.40;-10.24;5.23;-15.46;-20.47
-9.91;-9.69;-19.93;10.89;-21.02;-14.92
-9.91;-4.79;-21.56;8.39;-16.99;-15.68
0.54;-7.30;-27.22;6.86;-18.62;-15.68
2.94;-5.66;-21.56;1.96;-12.20;-9.26
-2.72;-6.43;-25.59;0.33;-5.77;-2.83
-28.42;-0.76;-3.81;-1.20;7.95;3.70
5.34;1.63;14.70;-9.26;5.55;8.49
15.90;1.63;-10.24;-4.46;4.68;16.55
-11.54;1.63;-1.42;-2.07;17.64;10.13
-5.88;1.63;17.10;-6.10;31.25;18.95
-5.88;1.63;16.33;-2.07;24.07;18.19
15.03;-0.00;13.07;0.33;7.08;17.32
8.60;5.66;13.94;-2.07;-19.49;23.85
-9.15;22.54;13.94;-35.07;-26.68;7.73
23.09;1.63;6.64;-27.88;-20.26;2.83
2.18;-1.63;4.25;-2.07;-11.43;0.44
-13.94;0.76;-2.18;9.26;5.55;-10.89
11.87;8.06;-11.87;-2.07;-7.41;-18.95
7.84;4.79;-9.47;-0.44;-13.83;-14.05
27.12;-2.40;-15.14;6.86;-8.17;-14.92
-2.72;5.66;-15.14;11.65;10.35;-10.02
-0.22;-2.40;-16.66;-6.10;19.17;-10.89
2.94;-3.27;-21.56;10.89;10.35;10.89
0.54;-4.79;-15.14;6.86;40.95;-7.62
0.54;-6.43;-3.05;3.59;10.35;2.07
-4.25;4.03;0.98;-1.20;10.35;6.86
-17.21;-7.30;5.88;5.23;-0.11;13.29
-9.15;-4.79;11.54;-1.20;-11.43;11.76
-10.78;3.27;15.57;-0.44;-18.62;7.73
-10.78;1.63;30.06;-3.70;-19.49;10.89
-1.85;4.79;20.36;-3.70;-17.86;21.34
-4.25;9.69;15.57;-16.55;-12.20;21.34
0.54;8.06;15.57;12.41;-4.14;20.58
2.94;5.66;12.31;-13.29;-16.23;7.73
2.94;-3.27;7.51;-2.07;-4.90;-1.20
8.60;4.79;1.85;1.96;-7.41;-1.96
10.24;-0.00;-2.18;10.02;6.32;-9.26
29.51;-11.33;-5.44;30.93;3.05;-8.39
6.21;3.27;-9.47;3.59;14.37;-14.05
-13.94;-2.40;-12.63;10.89;11.11;-14.05
-30.06;-8.06;-16.66;10.89;20.04;-12.41
23.09;4.79;-23.20;9.26;21.67;-10.02
3.81;-6.43;-22.32;5.99;20.80;-14.05
5.34;-7.30;-15.14;3.59;7.95;-11.65
-5.88;-4.79;-6.21;-2.83;-4.90;-7.62
-5.88;-22.54;-3.81;-4.46;-0.11;2.07
15.03;0.76;3.48;-3.70;1.52;10.13
-35.72;4.03;9.04;-10.13;5.55;8.49
-6.75;5.66;10.67;-2.07;3.05;8.49
-35.72;1.63;15.57;-6.10;-7.41;-8.39
-9.15;4.79;13.94;-14.92;-8.17;12.52
-4.25;4.79;11.54;-13.29;-9.80;15.79
2.94;4.79;11.54;-9.26;-12.96;19.82
2.94;3.27;11.54;-5.23;-11.43;14.92
5.34;-20.15;10.67;-1.20;-14.59;1.20
2.94;1.63;20.36;5.23;-11.43;23.85
-9.91;5.66;-2.18;-2.83;7.95;-10.89
-5.12;3.27;-8.60;7.62;-14.59;-22.98
-26.90;-0.00;-25.59;6.86;-4.90;-20.47
2.94;-2.40;-9.47;15.68;5.55;-22.11
8.60;1.63;-24.72;6.86;7.95;-14.92
2.18;-7.30;-22.32;3.59;11.11;-14.05
-15.57;-6.43;-24.72;-14.92;-0.87;-14.92
0.54;-4.79;-18.30;5.99;4.68;-5.23
0.54;-18.51;-11.11;21.34;18.40;2.83
23.96;-2.40;-1.42;-1.20;4.68;7.73
-2.72;-2.40;2.61;-5.23;-4.90;10.89
0.54;4.03;10.67;-9.26;-2.50;32.67
0.54;-3.27;13.07;-9.26;-1.74;16.55
-1.09;0.76;24.39;-10.89;-1.74;18.19
-14.81;1.63;19.60;-6.10;0.65;22.98
-2.72;6.43;11.54;-1.20;0.65;36.70
-1.09;4.79;17.10;-6.86;1.52;26.24
-1.85;2.40;38.11;-1.20;5.55;15.79
-19.60;3.27;18.73;-2.07;5.55;20.58
-0.22;-0.76;0.98;0.33;7.08;-5.23
0.54;2.40;-1.42;1.96;5.55;-34.19
2.94;1.63;-9.47;5.23;5.55;-18.08
4.57;-20.15;-10.24;-2.07;6.32;-18.08
11.87;1.63;-14.27;6.86;11.11;-10.89
23.09;-2.40;-22.32;3.59;10.35;-7.62
2.94;-0.76;-21.56;8.39;11.11;-9.26
6.97;0.76;6.64;10.89;16.01;-13.29
2.94;-4.79;-18.30;10.02;14.37;-9.26
-3.48;-2.40;-9.47;4.36;9.58;-1.96
-5.88;-4.03;-28.75;-2.83;-2.50;10.89
-2.72;4.79;7.51;-6.86;-6.53;13.29
-5.88;4.03;13.07;-10.13;-15.46;-8.39
-2.72;-5.66;13.07;-2.83;-9.80;8.49
28.75;4.79;20.36;-6.86;0.65;-0.33
-9.15;5.66;15.57;-4.46;-20.26;15.79
-1.85;5.66;13.07;-9.26;-32.34;23.85
23.96;5.66;15.57;-2.83;-37.13;18.19
2.94;5.66;15.57;-10.13;-25.05;13.29
34.41;7.19;4.25;-10.13;-12.20;3.70
0.54;-2.40;-1.42;12.41;5.55;-5.23
2.94;4.03;-8.60;8.39;24.07;-11.65
-6.75;1.63;-6.21;3.59;24.07;-17.32
13.39;4.79;-12.63;5.99;20.04;-18.95
-4.25;1.63;-5.44;7.62;20.04;-20.47
7.84;-6.43;-14.27;12.41;17.64;3.70
-1.85;-2.40;-5.44;3.59;9.58;-22.11
18.30;-7.30;-21.56;-16.55;5.55;-21.34
2.18;-4.79;-16.66;10.89;14.37;-7.62
6.97;-2.40;-8.60;7.62;1.52;-2.83
7.84;26.57;-1.42;6.86;-4.90;5.23
7.84;1.63;4.25;-2.07;-4.90;4.46
1.31;4.03;7.51;-4.46;-33.11;8.49
14.27;4.03;19.60;-3.70;-16.99;-17.32
2.94;8.82;17.10;-6.10;-14.59;5.23
-1.09;0.76;10.67;-11.76;-11.43;13.29
-1.85;4.03;13.94;-14.16;-8.17;13.29
4.57;-24.18;12.31;-14.92;-3.38;17.32
-0.22;4.79;10.67;-3.70;-0.11;10.89
-26.90;4.03;7.51;1.20;5.55;8.49
2.18;4.79;2.61;-14.92;0.65;-1.96
-2.72;0.76;-2.18;6.86;-4.90;2.07
-2.72;-2.40;-12.63;10.89;-4.90;-10.02
2.18;-4.79;-11.87;-21.34;5.55;-12.41
-30.06;0.76;-13.50;2.83;15.14;-10.89
7.84;-11.33;-19.17;8.39;35.28;-9.26
2.94;-1.63;-15.14;10.89;17.64;-8.39
-0.22;-29.84;-21.56;10.89;16.01;-14.05
3.81;-6.43;-15.90;8.39;16.01;-5.23
-24.39;-7.30;-10.24;0.33;10.35;2.83
-12.31;-4.79;-2.18;-6.86;4.68;5.23
-3.48;-1.63;-0.54;-10.13;13.61;15.79
-4.25;-8.06;6.64;5.23;3.92;7.73
-3.48;-1.63;11.54;-6.10;1.52;10.89
2.94;1.63;16.33;14.05;-12.20;8.49
-17.21;-7.30;17.10;-4.46;-8.17;8.49
-1.85;-12.09;11.54;-35.07;-17.86;20.58
-37.35;1.63;22.00;-13.29;-16.23;27.88
2.94;5.66;9.04;-3.70;-6.53;8.49
28.75;5.66;8.28;1.96;13.61;2.83
2.94;27.33;-0.54;2.83;21.67;-1.20
3.81;-2.40;-8.60;0.33;13.61;-13.29
-1.09;1.63;-2.18;3.59;-9.80;-14.05
-30.06;0.76;-13.50;10.89;-21.02;-18.95
2.94;-4.79;-8.60;8.39;-22.65;-22.11
-1.09;-5.66;-17.53;8.39;-21.89;-18.08
-9.15;-5.66;-18.30;6.86;-18.62;-10.89
18.30;-7.30;-20.69;10.89;-12.20;-16.44
6.21;-0.00;-23.20;8.39;0.65;-8.39
2.94;-3.27;-11.87;4.36;13.61;0.44
-1.09;28.97;-1.42;-2.83;23.20;9.26
-4.25;10.45;2.61;-2.83;28.10;11.76
1.31;-1.63;10.67;-2.07;24.07;12.52
-11.54;2.40;24.39;-4.46;14.37;11.76
0.54;5.66;20.36;-4.46;-1.74;14.16
-8.28;-3.27;11.54;-2.83;-12.20;19.82
3.81;1.63;11.54;-35.94;-21.02;28.64
2.18;29.84;15.57;-14.92;-21.89;27.88
2.18;5.66;12.31;-6.86;-21.02;17.32
-5.88;-1.63;9.04;-1.20;-2.50;2.83
-7.51;-3.27;2.61;1.96;1.52;-2.83
17.42;0.76;-0.54;26.14;3.92;-9.26
2.94;3.27;-1.42;-2.07;1.52;-18.95
4.57;-0.00;-9.47;3.59;-0.11;-20.47
-30.93;-3.27;-0.54;-2.07;-29.08;-22.98
5.34;-4.03;-19.17;-1.20;1.52;-18.08
-21.24;-2.40;-16.66;3.59;4.68;-19.71
4.57;-8.06;-21.56;10.89;3.05;-22.98
2.94;-8.06;-16.66;10.02;4.68;-14.05
44.10;-3.27;0.98;-0.44;7.95;2.07
-5.12;-31.47;-1.42;10.89;17.64;8.49
2.94;3.27;11.54;1.96;14.37;15.79
-7.51;8.06;13.07;-6.10;7.08;15.79
-13.94;2.40;15.57;-4.46;9.58;14.92
-7.51;1.63;13.07;-16.55;7.95;13.29
-9.15;11.22;17.10;-10.89;24.07;27.88
-11.54;4.79;11.54;-14.16;20.80;27.01
21.45;1.63;17.10;-14.16;13.61;23.85
-2.72;0.76;11.54;-2.07;-2.50;14.92
-0.22;-1.63;6.64;-2.07;-24.28;-11.65
-30.93;5.66;-1.42;-2.07;-27.55;-8.39
-22.87;-1.63;-5.44;-4.46;-22.65;-10.89
2.94;0.76;-9.47;1.96;-8.17;-18.08
14.27;1.63;-8.60;-2.07;1.52;-19.71
4.57;-1.63;-7.08;1.96;-2.50;-18.08
1.31;-33.87;-16.66;5.23;1.52;-13.29
2.94;-8.82;-15.90;10.89;3.05;-20.47
1.31;-8.06;-23.96;10.02;1.52;-22.11
-2.72;-4.79;-15.90;9.26;-0.11;-7.62
5.34;-5.66;-11.11;3.59;3.92;-4.36
-5.88;-2.40;-6.21;-0.44;5.55;6.10
-40.51;4.03;-1.42;-3.70;0.65;2.83
-9.15;3.27;8.28;-9.26;3.05;7.73
-10.78;-2.40;13.94;-2.83;2.29;8.49
-2.72;3.27;20.36;-10.13;3.05;13.29
28.75;0.76;11.54;-4.46;-2.50;20.58
4.57;4.79;11.54;-10.89;0.65;27.01
-22.87;4.79;11.54;-3.70;-6.53;28.64
24.72;4.79;11.54;-11.76;-5.77;14.92
2.94;1.63;6.64;-0.44;-3.38;2.07
27.99;1.63;-0.54;11.65;0.65;-8.39
11.87;4.03;-3.81;8.39;5.55;-14.05
15.90;4.79;-8.60;9.26;5.55;-15.68
2.18;4.03;-8.60;8.39;-4.14;-20.47
5.34;26.57;-11.87;-17.32;1.52;-15.68
0.54;5.66;-11.11;37.46;5.55;-12.41
24.72;-2.40;-15.90;-1.20;16.77;-10.89
2.94;-5.66;-9.47;5.99;14.37;-21.34
2.18;-5.66;-16.66;3.59;14.37;-8.39
8.60;-8.82;-8.60;7.62;14.37;2.83
-1.85;-7.30;0.22;6.86;31.25;-20.47
27.99;-8.82;4.25;-1.20;-0.11;15.79
-4.25;0.76;13.07;-2.07;7.08;13.29
-22.87;0.76;13.94;-13.29;-16.99;7.73
-1.09;3.27;19.60;-4.46;-19.49;14.92
-17.21;6.43;15.57;-12.52;-15.46;15.79
-5.88;3.27;-5.44;-14.92;-11.43;21.34
-2.72;4.79;15.57;-10.13;-7.41;14.92
2.94;5.66;10.67;-7.73;2.29;11.76
-24.39;5.66;4.25;-6.86;4.68;1.20
-1.09;4.03;-1.42;-2.07;-1.74;-6.86
1.31;30.60;-7.08;1.20;6.32;-22.11
-5.12;3.27;9.91;5.99;8.71;-18.95
2.18;-0.00;-15.14;6.86;-16.23;-14.92
-10.78;7.19;-13.50;-14.92;1.52;-14.92
-1.85;-4.79;-18.30;21.34;-11.43;-5.23
-17.97;13.72;-23.20;6.86;-12.96;-10.02
3.81;-7.30;-24.72;8.39;-8.93;-22.98
-10.78;-3.27;-19.17;10.89;-0.11;3.70
-1.09;-0.00;-11.87;-6.10;-20.26;2.83
1.31;-30.60;-1.42;-2.83;-4.90;6.86
-5.88;-2.40;-0.54;-6.10;4.68;16.55
0.54;-2.40;23.63;-5.23;3.92;8.49
-10.78;5.66;39.64;-13.29;0.65;13.29
2.94;1.63;17.10;-10.13;4.68;-4.36
2.94;5.66;17.10;-10.13;1.52;14.92
-2.72;-0.00;13.07;-2.83;19.17;22.22
2.94;23.30;13.07;-12.52;28.10;23.85
-4.25;0.76;12.31;12.41;16.77;15.79
28.75;1.63;6.64;1.96;16.01;2.07
-5.12;-1.63;-1.42;3.59;3.05;-9.26
23.09;0.76;-2.18;3.59;-20.26;-15.68
2.94;0.76;-8.60;4.36;-32.34;-22.98
-11.54;-4.79;-13.50;3.59;-29.08;-21.34
16.66;-4.79;-8.60;10.02;-21.02;-15.68
-4.25;-4.79;-15.90;9.26;1.52;-34.96
-8.28;-6.43;-21.56;11.65;5.55;14.92
14.27;-0.00;-23.20;10.89;11.11;-17.32
11.00;-2.40;-22.32;4.36;13.61;-8.39
11.00;-4.79;0.22;-1.20;5.55;-0.33
11.87;-3.27;-1.42;-11.76;-3.38;3.70
-4.25;1.63;3.48;-36.70;5.55;11.76
-2.72;-1.63;10.67;-4.46;7.95;2.07
-5.12;5.66;17.10;1.20;5.55;16.55
3.81;2.40;23.63;-7.73;3.05;11.76
-2.72;4.03;14.70;-4.46;13.61;17.32
21.45;4.79;13.94;-3.70;16.01;2.83
-35.72;4.03;13.94;-2.83;7.95;11.76
-5.12;3.27;15.57;-2.07;-12.20;14.16
1.31;3.27;6.64;-0.44;-25.05;-7.62
0.54;-2.40;-0.54;10.89;-29.08;-2.83
2.94;2.40;-3.05;-3.70;-20.26;-21.34
1.31;-6.43;-8.60;3.59;-5.77;-37.46
-0.22;1.63;-11.11;1.96;19.17;-18.08
6.21;10.45;-11.11;10.02;10.35;-11.65
0.54;0.76;-16.66;10.89;16.01;-10.02
-22.87;-1.63;-1.42;10.89;12.74;-16.44
0.54;-5.66;-23.20;10.02;15.14;-41.49
-5.88;-2.40;-15.90;1.96;14.37;-11.65
-34.09;-7.30;-13.50;0.33;7.95;-2.83
0.54;1.63;-1.42;-14.92;4.68;6.86
2.94;-6.43;5.88;0.33;6.32;10.89
-10.78;0.76;13.07;-2.07;7.95;14.92
11.87;-2.40;12.31;-4.46;6.32;19.82
-12.31;4.03;14.70;14.92;-4.90;14.92
-13.18;-2.40;18.73;-2.07;-0.11;10.13
-35.72;5.66;11.54;-5.23;-2.50;20.58
-1.09;-24.18;15.57;10.89;-7.41;26.24
2.94;-0.00;9.04;-4.46;-18.62;10.13
3.81;4.03;-3.05;-2.83;-20.26;2.07
5.34;4.79;17.10;-0.44;-25.05;-31.80
1.31;5.66;-2.18;1.96;-22.65;-10.89
2.18;27.33;-3.05;7.62;-7.41;-20.47
4.57;-4.79;-8.60;6.86;3.05;-21.34
4.57;-3.27;-8.60;8.39;5.55;-20.47
2.94;-5.66;-21.56;-2.83;14.37;-14.05
2.94;-4.03;-21.56;14.92;18.40;-15.68
5.34;-0.76;-24.72;8.39;20.80;-14.92
15.90;-4.03;-24.72;6.86;16.77;-10.02
-13.94;10.45;-10.24;-1.20;-4.90;-1.20
4.57;5.66;0.22;10.89;9.58;6.86
27.99;-2.40;1.85;-9.26;4.68;13.29
0.54;-2.40;4.25;-9.26;1.52;14.16
0.54;-1.63;11.54;-0.44;-1.74;13.29
11.00;3.27;15.57;-6.10;-8.93;13.29
-22.87;6.43;14.70;-30.27;-16.99;18.19
8.60;6.43;11.54;-1.20;-17.86;26.24
-1.09;4.79;17.10;-14.92;-11.43;22.98
-6.75;4.03;13.94;-6.86;-3.38;12.52
-1.85;-0.00;3.48;-3.70;-0.11;2.83
4.57;-2.40;25.16;-2.07;5.55;-2.83
-9.15;5.66;-1.42;-1.20;17.64;-10.89
-0.22;-0.00;-3.81;5.23;2.29;-20.47
-1.09;-2.40;-12.63;1.96;9.58;-18.95
-2.72;-5.66;-7.84;3.59;18.40;-27.01
-3.48;-2.40;0.22;7.62;19.17;-15.68
-1.09;-0.76;-18.30;6.86;0.65;-43.02
1.31;-8.06;-12.63;3.59;-11.43;-6.86
1.31;-4.79;-19.93;5.99;-14.59;-17.32
-1.85;-3.27;-3.05;18.95;-7.41;2.07
1.31;0.76;0.98;-1.20;-31.58;3.70
2.94;0.76;11.54;-3.70;-9.80;10.13
-1.09;5.66;12.31;-9.26;-7.41;8.49
-1.09;0.76;18.73;-10.89;6.32;20.58
-0.22;3.27;16.33;-9.26;14.37;33.43
-11.54;1.63;20.36;-6.86;17.64;18.19
1.31;-0.00;12.31;-1.20;-5.77;22.98
1.31;2.40;17.10;-4.46;12.74;20.58
-36.48;4.03;12.31;0.33;18.40;17.32
20.69;4.79;-5.44;-1.20;-8.17;-10.89
2.94;11.22;0.22;-15.79;-21.89;-7.62
23.09;7.19;-3.81;2.83;-31.58;-14.92
0.54;4.03;-9.47;1.96;-43.67;-15.68
-1.85;4.03;-5.44;4.36;-20.26;-18.95
1.31;1.63;-5.44;3.59;-2.50;-22.98
-5.12;-1.63;-4.57;10.89;13.61;-22.98
2.94;-3.27;-15.14;10.89;14.37;-17.32
2.18;-11.33;-22.32;10.89;17.64;-20.47
6.97;-6.43;-19.93;5.99;-3.38;-14.92
31.15;18.51;-11.87;5.23;24.07;1.20
12.63;4.79;-1.42;-2.83;32.89;8.49
6.97;0.76;5.88;1.20;36.92;16.55
-2.72;3.27;13.07;0.33;42.58;-10.89
-1.85;-1.63;26.03;-2.07;29.73;18.95
15.90;5.66;19.60;-4.46;-2.50;19.82
1.31;37.03;12.31;-9.26;-37.13;41.49
-8.28;4.79;15.57;-6.86;-50.86;28.64
-7.51;5.66;18.73;-4.46;-47.70;21.34
2.94;-0.00;12.31;-5.23;-42.04;14.92
2.94;1.63;-0.54;-5.23;-22.65;-4.36
-4.25;2.40;-1.42;-3.70;-4.90;-5.99
0.54;3.27;-5.44;-2.83;1.52;-14.05
-5.12;0.76;-18.30;1.96;8.71;-10.02
2.94;1.63;-9.47;3.59;20.04;-11.65
-4.25;-1.63;-7.08;3.59;19.17;-20.47
-2.72;-6.43;-19.17;10.89;11.11;-10.02
4.57;-3.27;-15.14;11.65;9.58;-12.41
2.94;-20.91;-23.20;2.83;9.58;-18.08
2.18;-7.30;-19.93;10.89;5.55;-2.83
-7.51;-4.79;-8.60;6.86;4.68;2.83
-4.25;-5.66;-2.18;-2.07;0.65;15.79
-1.09;-6.43;4.25;-3.70;-3.38;15.79
-5.12;0.76;12.31;-7.73;-1.74;14.16
28.75;3.27;14.70;-14.16;-15.46;17.32
-1.09;-6.43;20.36;-6.10;1.52;13.29
28.75;5.66;22.00;-2.83;31.25;10.89
-15.57;-27.44;12.31;-14.92;5.55;28.64
-1.85;4.79;18.73;-2.83;5.55;25.37
-21.24;4.79;12.31;-6.86;-20.26;7.73
1.31;-1.63;4.25;-4.46;4.68;-4.36
1.31;11.22;-1.42;-2.83;-3.38;-5.23
2.94;-0.00;-1.42;-1.20;-7.41;14.16
2.18;-1.63;-5.44;6.86;-11.43;-22.98
-28.42;-3.27;-3.81;14.92;-8.17;-26.14
2.18;-5.66;-7.08;10.89;-8.17;-36.59
19.93;-32.23;-16.66;12.41;-2.50;-12.41
-14.81;-4.79;-23.20;8.39;5.55;-15.68
2.94;-3.27;-23.20;10.89;14.37;-14.92
4.57;-4.79;-18.30;5.23;19.17;7.73
2.94;-3.27;-13.50;-0.44;9.58;2.83
2.18;-5.66;-1.42;-0.44;31.25;11.76
6.97;-4.79;7.51;-6.10;16.01;40.73
6.97;1.63;9.04;-10.13;-4.14;15.79
2.94;-0.00;13.94;-14.92;-4.90;13.29
1.31;4.03;18.73;-7.73;-14.59;7.73
16.66;4.03;-0.54;-6.86;-18.62;4.46
0.54;3.27;15.57;-2.83;-10.56;16.55
-1.85;11.22;12.31;-2.83;-16.23;8.49
-21.24;4.03;10.67;-6.86;-12.96;2.07
1.31;-3.27;0.98;-24.61;-19.49;-1.96
28.75;5.66;-1.42;-10.13;-18.62;-10.02
-13.18;4.03;-11.11;-29.40;-12.20;-14.92
-22.00;-10.45;-8.60;3.59;-2.50;-19.71
-1.09;-1.63;-11.87;0.33;3.05;-21.34
11.87;-4.79;-13.50;5.23;18.40;-11.65
-17.21;1.63;-18.30;9.26;27.22;-7.62
15.90;-2.40;-19.17;11.65;5.55;-10.89
2.18;-5.66;-23.20;10.02;10.35;-10.89
-5.88;-7.30;-14.27;10.89;-3.38;6.86
32.78;-4.79;-6.21;0.33;-6.53;2.07
1.31;11.22;-1.42;-1.20;1.52;14.92
-30.93;3.27;2.61;-7.73;2.29;15.79
-35.72;1.63;7.51;-6.10;5.55;17.32
8.60;-28.21;12.31;-2.07;5.55;11.76
-4.25;5.66;16.33;-2.83;0.65;-1.20
15.03;5.66;17.10;-4.46;11.11;18.19
0.54;4.79;15.57;-2.83;3.05;28.64
-4.25;6.43;17.10;-1.20;11.11;24.61
2.94;5.66;14.70;-0.44;17.64;16.55
-1.85;0.76;9.91;3.59;23.20;6.86
2.18;-0.00;2.61;6.86;31.25;-8.39
5.34;-32.23;-2.18;2.83;27.22;-12.41
5.34;-1.63;-5.44;5.99;19.17;-14.05
11.00;3.27;-24.72;0.33;-5.77;-15.68
28.75;8.06;-14.27;5.99;-29.08;-18.95
15.03;-0.00;-14.27;-25.37;-46.06;-21.34
-0.22;-4.79;-13.50;6.86;-58.15;-27.01
-0.22;1.63;-15.14;-7.73;-50.09;-33.43
-1.09;-4.79;-4.57;-2.07;-35.61;-30.93
-0.22;1.63;-2.18;-2.07;-11.43;-5.99
20.69;3.27;-0.54;-3.70;3.92;2.83
-1.09;5.66;-4.57;-2.83;13.61;10.89
0.54;-1.63;8.28;-1.20;20.04;19.82
-1.85;-8.06;7.51;-3.70;18.40;28.64
32.02;-19.38;5.88;-5.23;24.07;40.73
-4.25;-2.40;9.04;1.20;22.43;27.88
11.00;0.76;20.36;1.20;24.83;53.58
-9.15;4.03;26.79;-1.20;17.64;37.46
-4.25;-2.40;46.94;-2.83;4.68;21.34
-5.88;3.27;29.19;0.33;-6.53;6.86
-4.25;4.79;26.79;1.96;-5.77;-5.99
-10.78;0.76;24.39;-1.20;-0.11;-14.05
1.31;22.54;22.76;1.96;6.32;-18.95
2.94;-1.63;15.57;9.26;22.43;-23.74
2.94;-3.27;11.54;1.96;23.20;-22.98
2.94;-0.00;2.61;-2.83;18.40;-24.50
2.94;-12.09;5.01;-6.10;-22.65;-27.01
2.94;-0.00;3.48;-0.44;-33.98;-25.37
5.34;1.63;2.61;-0.44;-25.05;-20.47
-25.26;-33.00;4.25;-3.70;-19.49;-5.99
-2.72;-3.27;6.64;-0.44;-5.77;5.23
-1.85;-1.63;4.25;-2.07;3.05;18.19
2.94;1.63;4.25;-0.44;6.32;22.98
-2.72;-14.48;1.85;-2.07;7.08;20.58
-4.25;-1.63;4.25;-2.83;9.58;26.24
-4.25;1.63;34.85;-4.46;16.01;24.61
-5.12;-1.63;10.67;-2.07;13.61;5.23
-5.88;4.03;-1.42;-2.83;13.61;32.67
-1.09;-0.00;-1.42;22.87;7.08;27.88
1.31;3.27;2.61;-2.83;11.11;4.46
0.54;-3.27;-1.42;0.33;11.98;-1.20
6.21;4.03;-8.60;1.96;2.29;-11.65
2.94;-2.40;-14.27;5.99;-4.14;-19.71
29.51;-0.00;-18.30;-7.73;-8.93;-25.37
26.35;-12.09;-25.59;0.33;-12.96;-22.98
6.97;2.40;-26.35;-0.44;-7.41;-25.37
-5.12;0.76;-26.35;31.80;-6.53;-34.19
26.35;-2.40;-27.22;25.37;-4.90;-33.43
-9.91;2.40;-26.35;-22.22;-3.38;-12.41
3.81;4.79;-18.30;1.96;-2.50;-5.23
1.31;-1.63;-22.32;24.50;8.71;3.70
11.87;0.76;-15.14;1.96;11.11;21.34
0.54;4.03;-8.60;-2.07;7.08;22.98
2.18;3.27;-11.11;-9.26;4.68;26.24
0.54;1.63;7.51;-9.26;-4.90;15.79
-15.57;2.40;-6.21;-6.10;-15.46;21.34
-2.72;4.79;-3.05;-11.76;-22.65;28.64
-5.12;4.03;-0.54;-3.70;-24.28;53.58
-5.12;1.63;-0.54;-6.10;-31.58;16.55
20.69;32.23;-3.81;-0.44;-24.28;-3.59
3.81;-0.00;-0.54;-2.07;-8.17;-5.99
-6.75;-3.27;-6.21;5.23;-2.50;-44.65
3.81;-4.79;-5.44;19.71;5.55;-22.98
0.54;-8.06;-6.21;10.89;18.40;-27.01
5.34;-0.00;-24.72;10.02;23.20;14.92
2.18;-1.63;-28.75;5.23;24.07;-14.05
-2.72;-1.63;-6.21;10.89;20.80;-22.11
1.31;-2.40;7.51;5.99;18.40;-38.22
2.94;1.63;-5.44;8.39;23.20;-17.32
1.31;-1.63;-1.42;9.26;29.73;2.83
0.54;-2.40;-6.21;10.02;23.20;4.46
2.18;-28.21;0.98;-12.52;17.64;16.55
-8.28;-2.40;4.25;8.39;-7.41;19.82
1.31;-0.00;2.61;-4.46;-18.62;27.01
-18.84;-0.00;-0.54;-11.76;-25.05;27.88
0.54;8.06;3.48;-12.52;-20.26;23.85
4.57;0.76;4.25;-25.37;-15.46;34.30
7.84;1.63;5.88;7.62;-3.38;31.04
3.81;0.76;2.61;-7.73;-28.31;19.82
-11.54;-20.15;-1.42;-2.07;-20.26;2.83
-1.85;-6.43;-11.11;-2.07;-12.96;-10.02
0.54;-1.63;-7.08;-1.20;-4.14;-27.01
-4.25;-1.63;-9.47;5.99;2.29;-28.53
-9.91;-2.40;-34.41;5.99;9.58;-24.50
-25.26;-2.40;-1.42;5.99;17.64;-43.89
-1.85;-6.43;-7.84;6.86;22.43;-22.11
-6.75;3.27;-2.18;-22.22;26.46;-26.14
3.81;-4.03;-5.44;-1.20;35.28;-24.50
2.18;1.63;-1.42;8.39;31.25;-10.89
17.42;-0.00;-1.42;3.59;16.01;-26.14
-28.42;-8.82;0.22;-0.44;-1.74;8.49
2.94;-2.40;1.85;0.33;-3.38;20.58
2.94;0.76;9.04;1.96;-31.58;27.88
-5.12;0.76;4.25;1.96;-34.74;26.24
-40.51;4.79;-0.54;-2.07;-40.40;21.34
-4.25;-2.40;4.25;-1.20;-27.55;21.34
1.31;-3.27;-10.24;-2.07;-12.96;27.01
-21.24;5.66;4.25;-10.13;-5.77;28.64
-22.87;5.66;6.64;-3.70;3.92;10.89
2.94;-1.63;0.22;-14.16;4.68;2.83
2.94;0.76;1.85;-6.10;5.55;-8.39
17.42;3.27;-0.54;-0.44;13.61;-17.32
-1.85;1.63;-10.24;-1.20;9.58;-18.95
-1.85;-7.30;-3.05;10.02;9.58;-22.98
-5.88;-5.66;-3.81;1.96;9.58;-22.98
-18.84;-5.66;-6.21;8.39;31.25;-15.68
-5.88;-1.63;-11.87;9.26;30.49;-22.98
6.97;-6.43;-5.44;9.26;29.73;-25.37
1.31;-2.40;-1.42;10.89;-8.93;-12.41
23.09;-3.27;-1.42;1.96;-19.49;-7.62
11.87;4.03;0.98;0.33;-21.02;8.49
-13.94;1.63;5.88;-2.07;-15.46;25.37
2.94;0.76;0.98;-3.70;1.52;38.33
-22.87;-2.40;8.28;-4.46;4.68;28.64
0.54;0.76;-19.17;-2.83;5.55;37.46
17.42;1.63;7.51;-4.46;3.92;31.04
2.94;4.79;6.64;-13.29;4.68;31.91
2.94;0.76;7.51;-6.10;7.08;31.04
-2.72;-32.23;7.51;-2.83;-1.74;14.92
21.45;16.88;0.98;-15.79;-16.23;1.20
-1.09;-4.79;0.98;9.26;-18.62;-8.39
-4.25;-6.43;1.85;22.87;-4.14;-22.98
1.31;-1.63;-5.44;0.33;-3.38;-22.98
3.81;4.03;-8.60;5.99;-0.11;-27.77
-8.28;-1.63;-6.21;8.39;9.58;-22.98
32.78;-0.00;-11.87;10.02;14.37;-6.86
-8.28;1.63;-5.44;3.59;9.58;-31.80
2.94;31.36;-11.87;1.20;5.55;-31.80
20.69;1.63;-5.44;3.59;-1.74;-21.34
2.18;-4.03;-5.44;-3.70;-6.53;-4.36
-25.26;-2.40;-0.54;-10.13;1.52;3.70
-26.90;-1.63;5.01;8.39;-8.17;17.32
10.24;-3.27;-23.96;-2.07;-20.26;21.34
-4.25;-8.06;3.48;-2.83;3.05;26.24
2.18;1.63;32.45;-6.10;5.55;19.82
16.66;-28.21;2.61;-3.70;5.55;28.64
2.94;-17.75;4.25;5.99;6.32;33.43
0.54;4.03;4.25;-14.92;14.37;39.10
11.00;4.79;6.64;2.83;16.77;28.64
-17.21;5.66;3.48;2.83;12.74;28.64
6.21;1.63;-0.54;1.20;15.14;2.83
33.54;-1.63;-1.42;0.33;9.58;-13.29
36.81;-1.63;-3.81;-2.07;4.68;-22.98
2.18;-0.00;-3.05;8.39;-3.38;-23.74
2.94;-3.27;-6.21;1.20;1.52;-20.47
7.84;-3.27;-9.47;1.20;13.61;-22.11
-6.75;0.76;-8.60;-4.46;-3.38;-33.43
3.81;-1.63;-15.90;6.86;-8.93;-31.80
-30.06;3.27;-4.57;5.99;-12.20;-38.22
23.09;-0.00;10.67;3.59;-17.86;-1.96
-18.84;-4.79;-3.05;5.23;-17.86;3.70
-14.81;-2.40;0.22;0.33;-8.93;22.98
1.31;2.40;3.48;-6.86;-6.53;33.43
0.54;-1.63;-0.54;-12.52;-3.38;18.19
20.69;-0.00;-1.42;-10.13;5.55;18.19
-22.87;3.27;7.51;-13.29;-2.50;13.29
-5.88;1.63;4.25;-8.49;-6.53;37.46
-1.09;3.27;6.64;-10.13;-5.77;26.24
2.18;-2.40;6.64;-2.83;-5.77;16.55
2.94;2.40;4.25;-2.07;-9.80;5.23
-8.28;-3.27;2.61;-2.83;-9.80;-10.02
-8.28;4.03;-0.54;38.99;7.08;-18.95
6.97;3.27;-3.81;6.86;14.37;-22.11
-20.36;-3.27;-6.21;8.39;22.43;-19.71
2.94;-1.63;-3.05;10.89;19.17;-24.50
-1.85;-0.76;-1.42;4.36;13.61;-21.34
2.18;-4.79;-3.05;5.99;6.32;-22.98
2.18;-8.82;-8.60;6.86;6.32;-23.74
2.94;-3.27;-0.54;3.59;6.32;-12.41
-8.28;-4.03;-1.42;-2.83;5.55;-1.96
8.60;0.76;-1.42;1.96;7.95;10.89
15.03;-2.40;5.88;-10.13;1.52;16.55
-1.09;0.76;-1.42;-6.86;-11.43;23.85
-20.36;3.27;-1.42;-4.46;-4.90;27.01
4.57;5.66;8.28;-2.07;-6.53;41.49
3.81;6.43;3.48;-0.44;0.65;26.24
3.81;-3.27;6.64;-3.70;-0.11;28.64
5.34;5.66;9.91;-5.23;-8.17;26.24
0.54;5.66;4.25;-1.20;-12.96;18.19
17.42;5.66;9.04;1.20;8.71;2.83
1.31;-0.00;7.51;-3.70;16.01;-6.86
0.54;-5.66;0.22;0.33;9.58;-21.34
-1.09;-0.00;-3.05;15.68;5.55;-25.37
-4.25;-2.40;-8.60;-1.20;7.95;-27.01
-34.09;-3.27;-3.81;3.59;6.32;-2.83
2.18;0.76;-4.57;8.39;-19.49;-21.34
19.93;-2.40;-4.57;2.83;-16.23;-33.43
21.45;-4.79;-15.14;8.39;-8.17;-47.92
-12.31;-4.03;-11.87;5.23;1.52;-17.32
1.31;-0.00;-1.42;-1.20;-4.90;-4.36
5.34;1.63;-1.42;0.33;-20.26;12.52
28.75;4.03;-0.54;-2.07;-21.89;25.37
5.34;-0.00;-1.42;-0.44;-9.80;47.15
-3.48;-18.51;2.61;-5.23;6.32;29.40
3.81;3.27;5.88;-2.83;13.61;27.88
0.54;2.40;4.25;-2.83;9.58;27.01
3.81;26.57;6.64;-2.07;1.52;24.61
-22.87;5.66;7.51;-2.83;-4.14;23.85
2.18;4.03;4.25;-6.86;-9.80;7.73
-1.09;9.69;0.22;-2.83;-8.93;-1.20
-4.25;4.79;-0.54;0.33;-7.41;2.83
-0.22;-2.40;-2.18;-0.44;-8.17;-23.74
27.12;-0.00;-3.81;10.02;-4.90;-22.98
-5.88;-8.06;-1.42;6.86;6.32;-24.50
-1.09;0.76;-7.08;2.83;13.61;-22.98
-27.66;-4.79;-8.60;3.59;5.55;-22.98
-12.31;-3.27;-8.60;-2.07;-2.50;-31.80
2.94;-5.66;-6.21;11.65;-8.17;-30.17
-4.25;-2.40;-2.18;-7.73;-7.41;-22.98
0.54;-2.40;-3.05;-14.16;-8.17;-4.36
-5.12;-2.40;-9.47;-5.23;-4.90;8.49
-17.21;-0.00;-0.54;-5.23;-4.14;53.58
-4.25;0.76;4.25;0.33;-5.77;16.55
-40.51;-25.81;0.22;2.83;-8.17;28.64
15.90;1.63;10.67;1.96;-4.90;30.27
-6.75;3.27;10.67;-15.79;-0.11;28.64
21.45;1.63;7.51;16.44;5.55;35.94
0.54;-24.94;9.91;-3.70;9.58;34.30
-26.90;5.66;24.39;-3.70;20.80;16.55
20.69;-3.27;3.48;1.96;31.25;15.79
15.90;1.63;0.98;2.83;38.55;-1.96
-2.72;-1.63;0.22;8.39;31.25;-22.11
18.30;-1.63;-2.18;4.36;7.08;-38.22
2.94;5.66;2.61;6.86;-6.53;-10.02
-7.51;-3.27;-5.44;-2.83;-19.49;-28.53
-1.85;-6.43;-4.57;1.96;-9.80;-22.11
-13.94;-4.79;-0.54;-22.22;-7.41;-32.56
6.21;-4.79;-3.81;1.96;-4.90;-28.53
8.60;-1.63;-4.57;-1.20;-8.93;-20.47
0.54;-1.63;-1.42;-6.10;-9.80;-18.95
-20.36;2.40;-1.42;1.96;-16.23;8.49
2.18;5.66;-0.54;-1.20;-16.23;-10.02
-9.15;2.40;2.61;-2.07;-15.46;20.58
2.94;-3.27;3.48;-2.83;-16.99;27.01
2.94;5.66;3.48;-2.83;-6.53;17.32
1.31;-18.51;4.25;-3.70;3.92;27.01
1.31;-3.27;2.61;1.20;16.77;37.46
0.54;3.27;2.61;5.99;16.77;35.94
1.31;0.76;0.98;-2.07;16.01;18.19
2.94;-0.00;2.61;-2.07;5.55;5.23
-30.06;-1.63;2.61;-7.73;5.55;-6.86
-1.85;1.63;15.57;-4.46;5.55;-23.74
13.39;1.63;-0.54;-14.92;6.32;-22.98
2.94;-2.40;-1.42;-3.70;5.55;-20.47
1.31;-7.30;-3.05;1.96;5.55;-21.34
-11.54;-3.27;24.39;-2.07;4.68;-22.11
2.94;-4.79;-8.60;9.26;2.29;-30.17
-1.09;-1.63;-5.44;10.89;0.65;-30.17
-4.25;-3.27;-1.42;9.26;-4.14;-22.98
-5.88;19.28;-2.18;0.33;-16.23;-9.26
-25.26;-0.00;-1.42;-2.07;-8.93;2.83
-9.91;0.76;0.22;-4.46;-4.90;18.95
15.90;2.40;-24.72;-10.13;-8.17;16.55
11.87;-1.63;0.98;-2.83;5.55;17.32
1.31;4.03;-2.18;-3.70;5.55;28.64
7.84;4.03;8.28;-2.07;-1.74;27.88
-5.88;4.03;4.25;-4.46;-5.77;31.91
2.94;-8.06;10.67;-27.88;-7.41;32.67
-18.84;17.75;6.64;-27.01;-6.53;18.95
2.94;5.66;0.98;-13.29;-2.50;-0.33
-1.85;-3.27;-2.18;-2.07;-4.14;-10.89
2.94;5.66;-3.81;0.33;4.68;-20.47
3.81;1.63;-1.42;1.96;3.92;-27.77
-0.22;-3.27;-2.18;-1.20;3.92;-22.98
-4.25;-7.30;-3.81;5.99;2.29;-25.37
-1.09;0.76;-10.24;5.23;4.68;-23.74
8.60;-4.79;-4.57;-26.24;3.05;-26.14
-35.72;-5.66;-3.05;2.83;6.32;-30.17
2.94;16.12;-1.42;-14.92;7.95;-11.65
2.18;-1.63;-2.18;6.86;22.43;2.83
-9.91;-1.63;-1.42;0.33;29.73;8.49
0.54;2.40;0.98;-0.44;29.73;27.88
13.39;-1.63;7.51;6.86;7.95;31.04
-0.22;-1.63;-1.42;-2.07;-2.50;31.04
-8.28;3.27;5.88;-3.70;-4.90;31.04
-7.51;-7.30;3.48;35.83;1.52;27.88
-7.51;-33.87;9.91;-4.46;0.65;31.04
-6.75;6.43;5.01;-4.46;5.55;27.88
-1.85;7.19;-0.54;-2.07;-2.50;4.46
25.48;-1.63;16.33;-9.26;-15.46;-8.39
-14.81;-8.06;-3.05;-9.26;-20.26;-22.98
-21.24;0.76;-6.21;-2.83;-24.28;-26.14
2.18;2.40;-1.42;-2.07;-20.26;-27.01
3.81;0.76;-7.08;0.33;-16.23;-27.77
6.21;3.27;-10.24;1.96;-20.26;-28.53
2.18;-2.40;-4.57;22.87;-19.49;-22.98
5.34;-8.06;-8.60;5.23;-25.05;-24.50
19.06;-4.03;-11.87;3.59;-22.65;-36.59
1.31;-7.30;-3.81;6.86;-17.86;-22.98
-7.51;-3.27;-5.44;10.02;-6.53;0.44
-1.09;-4.79;-1.42;5.99;18.40;11.76
-1.85;-1.63;0.22;-2.83;31.25;44.00
8.60;-0.00;11.54;-1.20;33.76;23.85
-5.12;-3.27;0.98;-10.89;35.28;35.94
16.66;-0.00;6.64;-2.07;35.28;36.70
-4.25;-3.27;9.91;-6.10;17.64;39.97
2.18;0.76;9.91;-3.70;10.35;33.43
0.54;5.66;6.64;-6.86;-0.11;19.82
15.03;5.66;6.64;-6.10;-12.20;14.16
2.94;5.66;-1.42;-2.07;-41.16;2.83
-2.72;-1.63;-18.30;-2.07;-12.20;-17.32
-7.51;-1.63;-2.18;1.20;-8.17;-21.34
-1.09;-1.63;-5.44;1.96;-4.90;-22.98
-1.85;-2.40;-3.05;0.33;3.05;-27.01
2.18;-19.38;-8.60;7.62;10.35;-22.98
2.94;4.03;-3.05;8.39;18.40;-19.71
-7.51;-3.27;-2.18;1.20;12.74;-30.17
-22.87;-2.40;-3.05;0.33;-4.90;-33.43
9.37;-7.30;-1.42;1.96;-11.43;-12.41
8.60;-3.27;-1.42;-14.16;-4.14;-5.23
4.57;-0.00;-2.18;-0.44;-9.80;8.49
2.94;2.40;2.61;-0.44;-11.43;22.98
1.31;-1.63;6.64;-2.07;-14.59;28.64
24.72;4.79;5.88;-3.70;-18.62;28.64
2.18;-2.40;4.25;1.20;-1.74;28.64
-10.78;33.87;1.85;-10.13;5.55;24.61
-5.88;-0.00;-0.54;1.96;6.32;35.94
-1.85;4.79;3.48;-8.49;11.11;31.04
11.00;3.27;-11.87;1.20;18.40;30.27
-4.25;7.19;7.51;-2.07;16.01;1.20
-1.85;5.66;1.85;-1.20;-0.11;-10.02
-1.85;0.76;0.98;-0.44;4.68;-27.01
-1.85;2.40;-1.42;0.33;-0.87;-25.37
-8.28;-3.27;-5.44;16.44;-4.90;-22.98
0.54;-0.76;-6.21;-0.44;5.55;-22.98
29.51;4.03;-11.11;5.23;9.58;-22.98
15.90;16.12;-1.42;-15.79;-2.50;-22.98
11.00;0.76;-5.44;10.89;4.68;-30.17
19.93;-5.66;-4.57;3.59;5.55;-21.34
-1.09;-1.63;-1.42;-2.07;-4.90;-4.36
-6.75;1.63;-1.42;-3.70;-0.11;4.46
-9.15;1.63;0.22;-10.13;3.92;31.04
2.94;-0.00;-0.54;-6.10;0.65;27.88
-6.75;-5.66;7.51;-2.07;7.08;23.85
5.34;-11.33;6.64;-5.23;6.32;21.34
19.06;4.03;9.04;-2.07;-1.74;29.40
16.66;3.27;-19.93;-4.46;-1.74;35.94
-5.12;1.63;-21.56;-6.10;-2.50;34.30
-17.97;-19.38;3.48;-23.85;11.11;20.58
1.31;3.27;6.64;-2.07;18.40;2.07
1.31;-16.12;-1.42;5.99;16.77;-10.89
-1.09;5.66;-2.18;2.83;4.68;-19.71
2.18;-1.63;-3.05;-1.20;-12.96;-20.47
12.63;1.63;-3.05;2.83;-13.83;-22.98
-0.22;-1.63;-5.44;0.33;-14.59;-22.11
-31.69;-17.75;-3.81;-2.07;-5.77;-20.47
2.94;-1.63;3.48;5.23;0.65;-40.62
-1.09;23.30;-1.42;3.59;-8.17;-34.19
0.54;-0.00;-1.42;-2.07;-8.93;-22.98
-22.00;-4.79;-1.42;3.59;-16.99;-12.41
1.31;-1.63;0.22;-12.52;-20.26;2.83
-1.09;3.27;0.98;-4.46;-15.46;9.26
2.94;-4.79;0.22;-4.46;-15.46;14.92
3.81;-5.66;-1.42;-2.07;-14.59;14.92
-9.91;2.40;5.88;-9.26;-9.80;27.01
-30.06;-2.40;4.25;1.20;-5.77;20.58
-5.88;-1.63;-11.87;1.20;1.52;31.04
-1.85;0.76;7.51;5.99;-5.77;31.91
-1.09;1.63;-0.54;1.96;3.05;11.76
15.03;-5.66;-1.42;-2.07;6.32;-1.20
11.87;2.40;-1.42;4.36;7.08;-7.62
-5.88;5.66;-1.42;0.33;11.98;-12.41
2.94;1.63;-1.42;5.23;23.20;-27.01
0.54;1.63;-8.60;5.99;28.86;-20.47
-9.15;1.63;-5.44;9.26;27.22;-13.29
1.31;-1.63;-10.24;10.89;24.07;-17.32
1.31;1.63;-3.81;8.39;15.14;-23.74
2.94;-2.40;-3.05;3.59;7.95;-22.98
5.34;-3.27;-2.18;5.99;31.25;-10.89
2.94;-12.85;-6.21;5.99;19.17;-9.26
-30.93;-0.76;-1.42;0.33;10.35;2.07
-4.25;0.76;7.51;0.33;-4.14;28.64
-1.85;11.22;0.22;-13.29;-18.62;18.19
3.81;3.27;0.98;-2.83;-29.08;24.61
3.81;5.66;2.61;-12.52;-46.06;14.92
6.97;-2.40;4.25;-6.86;-58.15;23.85
5.34;-5.66;2.61;-6.10;-60.55;31.04
2.18;4.03;8.28;-6.10;-43.67;28.64
2.94;-1.63;17.10;-2.07;-21.89;16.55
-3.48;4.03;23.63;-4.46;5.55;6.10
-4.25;2.40;0.98;0.33;31.25;2.83
-13.18;0.76;0.98;10.89;42.58;-14.05
13.39;3.27;-2.18;0.33;36.15;-18.95
-30.06;-2.40;-5.44;8.39;31.25;-18.08
3.81;-2.40;-3.05;7.62;13.61;-22.98
-7.51;-6.43;-3.81;5.99;5.55;-18.95
2.94;2.40;-7.08;-2.07;5.55;-26.14
11.87;-6.43;-6.21;3.59;9.58;-30.93
6.97;-2.40;-8.60;-26.24;20.80;-22.98
-7.51;-1.63;-2.18;-2.83;16.01;-7.62
2.18;-24.94;-1.42;-2.07;3.05;11.76
7.84;2.40;-5.44;-1.20;-18.62;19.82
5.34;-0.00;-0.54;-0.44;-20.26;28.64
-5.12;-3.27;1.85;-0.44;-12.20;24.61
-31.69;-0.76;4.25;-2.83;-16.23;27.01
-10.78;-0.00;3.48;0.33;-3.38;43.12
-7.51;-0.76;3.48;-1.20;5.55;30.27
23.96;0.76;10.67;-2.07;5.55;31.04
-1.85;1.63;3.48;-6.10;4.68;14.92
-35.72;4.79;-0.54;-1.20;3.92;-22.98
-24.39;4.79;-0.54;0.33;-1.74;-10.02
4.57;-3.27;-3.81;0.33;-11.43;-18.08
5.34;-3.27;-5.44;-2.07;7.95;-21.34
3.81;-0.00;-9.47;19.71;3.05;-22.98
-1.09;1.63;-8.60;3.59;6.32;-22.98
2.94;9.69;-10.24;6.86;9.58;-22.98
27.99;1.63;-6.21;-1.20;11.11;-30.93
2.94;-0.00;-3.81;3.59;12.74;-36.59
-2.72;-3.27;-1.42;5.23;5.55;-14.05
-5.88;-4.03;-27.22;8.39;4.68;-7.62
2.94;-3.27;-1.42;-0.44;-2.50;2.83
2.94;-2.40;3.48;-2.07;0.65;16.55
2.94;-0.00;0.22;-3.70;-5.77;18.19
-11.54;-3.27;-1.42;-2.07;20.04;24.61
-4.25;-1.63;1.85;-2.83;-9.80;27.88
-24.39;0.76;0.98;-22.22;-12.20;30.27
31.15;0.76;4.25;-9.26;-6.53;25.37
-5.12;5.66;4.25;-1.20;-4.14;31.04
-24.39;3.27;2.61;-1.20;6.32;26.24
-22.87;4.79;-1.42;2.83;7.08;-2.83
-2.72;4.79;2.61;1.96;-20.26;-12.41
-5.88;0.76;-1.42;-3.70;-6.53;-24.50
2.18;-4.03;-3.05;-6.86;-10.56;-27.77
-5.12;-2.40;-4.57;-6.86;-21.02;-23.74
-1.09;-5.66;-8.60;-3.70;-21.02;-26.14
-22.87;4.79;-4.57;-2.83;-31.58;-23.74
0.54;-3.27;-8.60;1.20;-31.58;-47.04
-0.22;-5.66;-8.60;-2.83;-20.26;-30.17
-1.85;4.03;-11.87;1.96;-7.41;-21.34
-2.72;3.27;-3.05;5.99;6.32;-5.99
2.18;-6.43;0.98;6.86;13.61;2.83
2.18;-3.27;-1.42;1.96;19.17;19.82
-1.09;3.27;0.22;-9.26;17.64;25.37
-5.88;-22.54;-0.54;-0.44;31.25;29.40
0.54;0.76;3.48;-1.20;19.17;32.67
24.72;3.27;4.25;0.33;31.25;31.04
-22.87;4.79;5.88;-3.70;30.49;28.64
21.45;1.63;10.67;-2.07;31.25;31.04
2.94;3.27;10.67;-1.20;31.25;16.55
-13.18;-37.90;9.04;9.26;17.64;2.83
2.94;0.76;3.48;3.59;-8.17;2.07
0.54;1.63;-3.05;-1.20;-31.58;7.73
-5.12;0.76;-2.18;2.83;-42.04;-22.98
-22.87;1.63;-6.21;-0.44;-42.04;-22.98
5.34;0.76;-8.60;2.83;-25.05;-25.37
24.72;-2.40;-5.44;2.83;-19.49;-22.11
-1.85;-0.76;-11.87;-2.83;-21.89;-27.01
-6.75;-3.27;-5.44;10.89;-2.50;-28.53
2.94;-0.76;-1.42;5.23;8.71;-19.71
0.54;24.18;-1.42;-10.89;11.11;-8.39
-4.25;1.63;-1.42;11.65;2.29;4.46
32.78;-18.51;0.98;27.77;1.52;16.55
-22.87;-4.79;5.88;-3.70;-4.14;17.32
-4.25;-1.63;1.85;-6.10;-6.53;27.01
2.94;0.76;1.85;-6.86;3.05;21.34
1.31;1.63;2.61;-2.07;16.77;28.64
-5.88;0.76;7.51;-1.20;20.80;40.73
-6.75;-0.00;1.85;-6.10;23.20;32.67
-20.36;-7.30;4.25;-3.70;15.14;19.82
-27.66;-22.54;-0.54;0.33;7.95;3.70
-1.09;2.40;2.61;2.83;4.68;-7.62
6.97;-2.40;0.22;-0.44;-2.50;-17.32
2.94;24.18;-1.42;2.83;-14.59;-22.98
14.27;-2.40;-3.05;-0.44;-21.02;-22.98
-5.12;-1.63;-1.42;5.99;-22.65;-25.37
-5.88;-11.33;-3.05;9.26;-4.90;-21.34
-34.96;-0.00;-6.21;-0.44;22.43;-35.83
-11.54;-4.03;-3.81;1.96;7.95;-34.96
-7.51;1.63;-7.08;-2.07;5.55;-14.92
17.42;1.63;-10.24;-1.20;-5.77;-1.96
7.84;4.03;0.22;5.23;-0.11;7.73
2.94;-4.79;3.48;3.59;9.58;15.79
2.94;4.79;6.64;-2.07;13.61;27.88
11.00;4.79;2.61;-1.20;3.92;30.27
7.84;1.63;0.22;-1.20;-5.77;29.40
2.94;5.66;5.88;-2.83;-4.90;28.64
-1.09;0.76;-5.44;-3.70;-0.11;31.04
-12.31;-3.27;4.25;-4.46;17.64;29.40
-7.51;20.91;0.98;-20.58;3.05;19.82
21.45;1.63;30.06;-1.20;12.74;2.83
3.81;-1.63;-26.35;2.83;11.98;-14.05
5.34;-4.03;12.31;2.83;10.35;-20.47
7.84;-1.63;-3.05;8.39;5.55;-21.34
-1.85;1.63;-3.81;6.86;9.58;-19.71
2.94;-1.63;-3.81;5.99;3.92;-24.50
-1.09;-2.40;-2.18;7.62;5.55;-21.34
-27.66;22.54;-3.81;11.65;7.95;-31.80
-5.88;0.76;-1.42;6.86;14.37;-32.56
-14.81;0.76;-3.05;1.96;17.64;-20.47
-4.25;-1.63;-1.42;0.33;11.11;-8.39
2.94;-20.91;-1.42;0.33;-1.74;2.83
0.54;-4.03;0.98;-2.07;-11.43;13.29
-0.22;-2.40;4.25;-6.10;-21.89;20.58
-0.22;-3.27;4.25;-15.79;-24.28;22.98
1.31;3.27;2.61;-14.16;-30.71;6.86
2.94;0.76;7.51;-6.10;-25.05;16.55
-9.15;3.27;-0.54;-12.52;-20.26;28.64
-2.72;5.66;1.85;-7.73;-23.52;35.94
7.84;-5.66;3.48;-10.89;-20.26;15.79
-1.09;2.40;-0.54;-6.86;-9.80;5.23
-1.09;4.79;-1.42;-9.26;-3.38;-3.59
2.18;1.63;-1.42;9.26;14.37;-10.89
-4.25;5.66;-1.42;5.99;22.43;-14.92
-2.72;-3.27;13.07;5.99;31.25;-17.32
25.48;5.66;-8.60;-18.95;32.89;-18.95
-14.81;-1.63;-1.42;10.89;31.25;-25.37
8.60;-4.03;-3.81;10.02;20.04;-22.98
2.94;20.91;-2.18;5.23;7.95;-23.74
1.31;-1.63;-2.18;10.02;0.65;-14.05
2.94;0.76;-0.54;1.96;-10.56;-6.86
15.03;-3.27;0.22;-3.70;-20.26;2.83
-4.25;-2.40;0.22;-0.44;-25.92;2.83
0.54;-2.40;-0.54;-9.26;-29.95;21.34
-1.09;3.27;2.61;-2.07;-27.55;27.88
-26.90;-1.63;7.51;2.83;-16.23;30.27
0.54;10.45;9.04;10.89;5.55;28.64
3.81;5.66;3.48;3.59;7.08;29.40
2.18;-1.63;9.91;1.96;20.80;36.70
-22.87;3.27;-1.42;-4.46;11.11;19.82
-1.09;5.66;2.61;-10.13;13.61;6.86
24.72;1.63;0.22;-17.32;5.55;1.20
-11.54;16.12;-1.42;-2.83;5.55;-20.47
-1.85;4.03;-1.42;-4.46;2.29;-18.08
1.31;-1.63;-4.57;-2.07;9.58;-15.68
-4.25;-5.66;-5.44;8.39;7.08;-18.95
-2.72;5.66;-9.47;0.33;7.95;-19.71
6.97;-1.63;-2.18;5.23;16.77;-31.80
-22.87;-1.63;9.91;10.89;29.73;-22.98
6.97;-5.66;-1.42;10.89;32.13;-17.32
2.94;-6.43;-13.50;3.59;20.04;-14.92
-5.12;-2.40;-2.18;2.83;-5.77;2.07
2.18;30.60;-0.54;-2.07;-24.28;-5.23
-2.72;-8.82;0.98;-2.07;-29.08;15.79
-13.94;-1.63;-3.05;-6.10;-29.08;19.82
15.90;-1.63;4.25;-7.73;-20.26;21.34
-9.91;-0.00;3.48;-2.07;-16.23;-4.36
-4.25;1.63;-15.90;-6.10;-12.96;29.40
-1.85;19.28;9.04;-7.73;-12.20;28.64
-1.85;0.76;0.98;-6.86;-12.20;11.76
-7.51;-0.00;9.04;-27.88;-9.80;-1.96
18.30;-2.40;2.61;-14.16;-8.17;-5.23
8.60;-3.27;-1.42;9.26;-3.38;-20.47
2.94;-0.00;-2.18;6.86;5.55;-20.47
1.31;-20.15;-8.60;-2.07;9.58;-18.08
-33.32;-1.63;-8.60;-1.20;18.40;-10.89
-4.25;-1.63;-8.60;-1.20;33.76;-20.47
-1.09;-25.81;-10.24;-28.64;31.25;-27.77
-1.09;4.79;11.54;-0.44;14.37;-31.80
0.54;14.48;-2.18;-2.07;7.95;-10.02
2.94;0.76;-1.42;10.89;7.95;-4.36
-2.72;-0.76;-1.42;3.59;4.68;8.49
20.69;1.63;-7.08;2.83;-1.74;14.92
0.54;-2.40;0.98;3.59;-2.50;22.98
-0.22;-2.40;9.04;5.23;-1.74;28.64
-1.85;-1.63;9.91;10.02;5.55;28.64
20.69;-1.63;3.48;-29.40;14.37;31.04
-3.48;3.27;6.64;1.96;20.04;28.64
0.54;5.66;-1.42;3.59;12.74;10.89
-1.85;-0.00;9.91;6.86;10.35;20.58
30.38;5.66;6.64;2.83;5.55;2.83
11.00;-0.76;3.48;-0.44;-4.90;-27.77
8.60;-1.63;0.22;5.99;-19.49;-22.98
4.57;-1.63;-1.42;5.99;-18.62;-22.98
1.31;-2.40;-3.81;13.29;-7.41;-22.98
2.94;2.40;-8.60;10.02;-3.38;-22.98
11.87;-2.40;-11.11;-0.44;-5.77;-22.98
-7.51;-1.63;-7.84;0.33;-4.14;-30.17
-4.25;-0.00;-8.60;-6.10;5.55;-30.93
0.54;2.40;-3.05;-5.23;-2.50;-20.47
1.31;0.76;-3.81;6.86;-9.80;-4.36
20.69;2.40;-2.18;-2.83;-19.49;-22.98
1.31;1.63;-0.54;-9.26;-16.99;19.82
17.42;-1.63;0.98;-10.13;-14.59;39.10
5.34;0.76;3.48;-7.73;-17.86;26.24
2.94;3.27;3.48;-6.86;-6.53;28.64
2.94;4.03;4.25;-2.83;-0.11;28.64
-10.78;4.03;9.91;-0.44;-1.74;34.30
26.35;-3.27;10.67;-3.70;-8.17;27.88
-4.25;-1.63;-1.42;0.33;-7.41;14.92
0.54;-4.03;0.98;0.33;3.05;2.83
-13.94;16.12;4.25;5.23;14.37;-5.23
-1.09;-2.40;0.22;25.37;21.67;-10.89
18.30;5.66;-0.54;5.23;32.13;-20.47
2.94;29.84;-5.44;-2.83;27.22;-15.68
2.18;10.45;-5.44;-23.85;26.46;-19.71
-1.09;-0.00;-28.75;3.59;15.14;-19.71
-11.54;4.03;0.98;2.83;2.29;-31.80
-1.85;-1.63;-6.21;-1.20;-8.93;-35.83
-1.09;25.81;-8.60;-29.40;-20.26;-26.14
-0.22;-7.30;-5.44;5.23;-20.26;-7.62
8.60;-0.00;-1.42;-1.20;-22.65;14.16
2.94;-24.18;-0.54;-2.07;-14.59;22.98
-5.12;-1.63;2.61;1.20;-6.53;18.95
3.81;-4.03;2.61;-1.20;-0.11;28.64
18.30;-3.27;0.22;-4.46;7.08;29.40
-5.12;1.63;2.61;-2.83;7.95;28.64
-2.72;5.66;7.51;6.86;6.32;41.49
-1.85;-2.40;9.04;-6.86;-5.77;36.70
19.93;4.79;31.58;-2.07;19.17;22.98
-17.21;5.66;5.88;-6.10;17.64;10.89
0.54;0.76;2.61;6.86;16.77;-5.99
2.94;1.63;-3.81;10.02;6.32;-14.05
2.18;-2.40;-5.44;0.33;8.71;-24.50
-5.12;-0.00;-2.18;5.99;9.58;-26.14
18.30;-0.76;-3.05;11.65;5.55;-23.74
-5.88;-22.54;-10.24;0.33;0.65;-20.47
15.90;-1.63;-21.56;1.96;-4.90;-35.83
0.54;-2.40;-9.47;-2.83;-10.56;-33.43
2.18;1.63;-11.87;-2.83;-17.86;-20.47
0.54;26.57;-1.42;-13.29;-31.58;1.20
-22.87;4.79;-0.54;-6.10;-19.49;8.49
2.94;-2.40;-1.42;-2.83;0.65;41.49
2.94;4.03;-3.81;-3.70;7.08;25.37
0.54;-3.27;1.85;-2.83;3.05;19.82
-34.96;-20.15;2.61;12.41;-12.20;32.67
-6.75;-0.00;0.22;-2.83;-21.02;49.55
-8.28;4.03;6.64;-4.46;-18.62;32.67
-5.12;3.27;6.64;-1.20;-6.53;34.30
2.94;4.79;7.51;-2.83;4.68;24.61
5.34;4.03;10.67;5.23;9.58;4.46
-1.09;4.03;0.98;1.96;6.32;-4.36
-30.93;1.63;0.22;6.86;7.95;-17.32
5.34;-8.06;-1.42;8.39;7.08;-22.98
3.81;0.76;-3.05;1.20;7.08;-26.14
-1.09;-0.00;-7.84;-4.46;7.08;-24.50
2.18;-20.91;-5.44;-0.44;5.55;-24.50
1.31;1.63;-0.54;-2.83;4.68;-27.01
2.94;8.82;-5.44;-3.70;-6.53;-30.17
2.94;0.76;-5.44;2.83;-4.90;-21.34
-0.22;27.33;-2.18;2.83;-4.90;-2.83
-5.88;-1.63;-1.42;-4.46;-9.80;5.23
-4.25;0.76;-1.42;-4.46;3.05;21.34
-2.72;-2.40;-0.54;-1.20;20.04;23.85
-1.09;-4.79;-7.08;0.33;7.95;26.24
0.54;1.63;4.25;-2.07;5.55;24.61
0.54;4.03;4.25;-2.07;-1.74;24.61
1.31;3.27;6.64;-0.44;-7.41;35.07
8.60;4.79;12.31;-1.20;-5.77;28.64
1.31;1.63;10.67;-0.44;-1.74;12.52
8.60;6.43;2.61;2.83;-20.26;2.83
3.81;-1.63;4.25;-17.32;-6.53;-4.36
3.81;5.66;-1.42;-0.44;6.32;-17.32
0.54;1.63;-2.18;1.96;-14.59;-22.98
-1.85;5.66;-1.42;-2.07;0.65;-21.34
3.81;-3.27;-3.81;-6.10;4.68;-21.34
1.31;-5.66;-11.87;-28.64;5.55;-22.98
7.84;-1.63;-4.57;3.59;24.07;-25.37
7.84;2.40;-8.60;1.96;30.49;-23.74
-4.25;2.40;-8.60;1.96;27.22;-18.08
-23.63;2.40;-2.18;3.59;7.95;-5.99
-7.51;-1.63;-2.18;1.20;4.68;2.83
-9.15;4.79;0.98;1.96;-8.17;13.29
-5.88;-3.27;2.61;-0.44;-21.89;21.34
2.18;-3.27;5.01;-2.83;-38.01;27.88
2.18;-0.00;0.98;0.33;-40.40;30.27
15.90;2.40;-0.54;-1.20;-34.74;6.86
0.54;-1.63;3.48;-0.44;-20.26;28.64
-1.09;3.27;3.48;-2.83;-0.11;29.40
2.94;-2.40;0.98;-9.26;1.52;12.52
-22.87;-4.79;0.98;-6.10;35.28;2.83
-0.22;4.03;-3.05;-1.20;38.55;-9.26
2.94;-3.27;-2.18;1.96;27.22;-21.34
-5.12;4.79;-19.93;1.96;7.95;-18.95
14.27;4.03;-3.81;3.59;-5.77;-23.74
1.31;-3.27;-10.24;-27.88;-4.90;-22.11
33.54;1.63;-5.44;0.33;-6.53;-18.08
-4.25;-1.63;-6.21;31.80;-8.17;-32.56
-36.48;-0.00;-4.57;-2.07;-10.56;-34.19
2.94;4.03;-3.05;0.33;-8.17;-32.56
1.31;-2.40;-0.54;2.83;0.65;-4.36
2.94;4.03;0.98;8.39;11.11;2.83
1.31;1.63;2.61;-0.44;24.07;16.55
-0.22;1.63;4.25;-3.70;9.58;20.58
1.31;4.79;7.51;-0.44;5.55;31.04
2.94;-2.40;0.98;-10.89;4.68;28.64
-4.25;-0.00;4.25;11.65;-1.74;29.40
-1.09;8.82;7.51;-10.13;-3.38;32.67
-9.15;-1.63;10.67;-2.83;-3.38;21.34
2.18;2.40;10.67;3.59;-2.50;19.82
1.31;-2.40;1.85;-0.44;3.92;2.83
2.94;-28.97;-0.54;-2.07;7.08;-5.99
-1.85;5.66;-1.42;-2.83;10.35;-12.41
1.31;4.03;-3.05;-2.07;3.92;-18.95
2.18;1.63;-3.81;2.83;4.68;-22.98
32.78;-2.40;-3.81;7.62;-1.74;-12.41
2.94;-1.63;-5.44;10.89;-6.53;-22.98
2.94;-1.63;-6.21;10.89;-9.80;-31.80
2.18;5.66;-5.44;7.62;-16.23;-18.95
-1.09;-4.79;-5.44;2.83;-12.20;-20.47
15.03;4.03;-3.05;-4.46;3.92;-10.89
-2.72;0.76;-1.42;-11.76;-14.59;5.23
0.54;3.27;-1.42;-14.92;-4.90;27.01
-1.09;-2.40;-1.42;1.96;-6.53;24.61
-5.88;-6.43;3.48;-4.46;5.55;22.98
-7.51;-0.00;4.25;-2.07;1.52;28.64
-4.25;1.63;7.51;11.65;4.68;26.24
0.54;5.66;-5.44;-2.83;7.08;39.10
-1.85;1.63;9.91;-2.07;10.35;33.43
-0.22;-2.40;8.28;-9.26;29.73;18.95
2.94;-8.06;-1.42;2.83;32.13;-2.83
2.94;-0.00;-1.42;10.89;31.25;-9.26
1.31;2.40;-0.54;-1.20;5.55;-11.65
2.94;3.27;-2.18;3.59;-7.41;-18.95
2.94;2.40;-5.44;8.39;-16.23;-21.34
5.34;2.40;-8.60;-1.20;-8.93;-22.98
-22.00;-3.27;-3.81;-10.89;-0.87;-22.98
0.54;-0.76;-22.32;1.96;-9.80;-40.62
1.31;-2.40;23.63;3.59;-13.83;-24.50
2.94;-3.27;-2.18;1.20;-21.89;-10.89
30.38;-3.27;-5.44;-2.07;-19.49;2.07
-9.91;0.76;-1.42;15.68;-17.86;10.89
5.34;-3.27;-3.81;-3.70;-8.93;14.92
-0.22;2.40;0.98;-30.27;5.55;26.24
-5.12;1.63;0.98;-2.83;10.35;28.64
1.31;-4.79;-0.54;-7.73;16.01;42.36
-9.91;4.79;4.25;-3.70;19.17;20.58
-5.12;4.03;3.48;-0.44;24.07;27.01
-9.15;-7.30;-1.42;-2.07;20.04;26.24
0.54;4.03;4.25;-1.20;7.95;4.46
-3.48;-0.00;0.98;-1.20;-8.93;0.44
1.31;5.66;-1.42;-2.07;-20.26;-26.14
0.54;2.40;-2.18;0.33;-16.23;-22.98
3.81;4.03;-2.18;-2.07;4.68;-22.11
0.54;5.66;-6.21;6.86;-7.41;-18.08
0.54;0.76;-5.44;1.96;-4.90;-22.98
1.31;-0.00;-10.24;36.59;-0.11;-22.11
-1.85;1.63;-4.57;22.11;5.55;-24.50
2.18;-4.79;-3.05;6.86;-3.38;-22.98
0.54;2.40;-3.05;10.89;11.98;-20.47
-14.81;1.63;-5.44;3.59;16.77;-5.23
-7.51;4.79;-2.18;-1.20;9.58;4.46
1.31;3.27;-1.42;-2.07;10.35;26.24
12.63;-0.00;-0.54;-17.32;3.05;28.64
-12.31;0.76;3.48;-5.23;-1.74;24.61
6.97;1.63;4.25;-4.46;3.92;30.27
2.94;5.66;-1.42;-2.83;-4.90;27.01
-3.48;-0.00;5.01;1.20;-0.11;38.33
-0.22;4.03;10.67;0.33;7.08;31.91
-13.94;-1.63;0.98;-14.92;5.55;16.55
2.18;-4.79;5.01;1.20;4.68;0.44
2.94;4.79;0.98;-0.44;-0.11;-14.05
2.94;-0.00;0.22;-0.44;-6.53;-22.98
1.31;-2.40;-3.81;2.83;-7.41;-39.86
-9.15;-28.21;-2.18;5.23;-16.23;-26.14
1.31;0.76;-4.57;-6.10;16.01;-22.98
-5.88;-0.76;-11.11;6.86;11.11;-20.47
-12.31;31.36;-3.81;2.83;17.64;-29.40
40.84;-6.43;-7.84;5.99;26.46;-24.50
-13.94;-0.00;-1.42;2.83;17.64;-17.32
-0.22;-2.40;-1.42;-2.83;7.95;3.70
5.34;20.91;-1.42;1.20;19.17;-1.96
6.21;5.66;0.98;-2.07;-21.89;28.64
-31.69;4.03;0.22;-9.26;-33.98;26.24
-30.93;5.66;0.22;6.86;-31.58;31.04
3.81;0.76;4.25;-29.40;-27.55;26.24
0.54;4.03;2.61;-23.85;-16.23;22.98
-10.78;4.03;-9.47;-4.46;-1.74;28.64
1.31;1.63;6.64;-2.07;10.35;27.88
1.31;5.66;4.25;-4.46;16.77;14.16
-1.85;-1.63;3.48;-2.07;31.25;1.20
-2.72;5.66;3.48;1.20;32.13;-10.02
13.39;4.03;-3.05;2.83;28.86;-30.17
-1.85;4.79;-1.42;8.39;25.70;-22.98
-2.72;-3.27;-3.05;1.96;12.74;-27.01
0.54;-6.43;-1.42;38.99;4.68;-24.50
-4.25;-4.79;-10.24;5.99;-14.59;-18.95
-21.24;-5.66;-2.18;2.83;-23.52;-30.17
6.97;-2.40;-5.44;1.20;-29.08;-24.50
6.97;-1.63;-3.05;2.83;-7.41;-14.05
-27.66;3.27;-1.42;-6.86;-3.38;-6.86
-1.85;-1.63;-0.54;0.33;5.55;4.46
-4.25;4.79;3.48;-2.83;-6.53;41.49
-4.25;-2.40;5.88;-1.20;-12.96;20.58
-0.22;-2.40;2.61;-2.83;-17.86;17.32
-7.51;-4.79;0.98;-6.10;-30.71;23.85
-22.87;-3.27;2.61;-11.76;-12.20;23.85
2.94;4.79;8.28;-14.16;-1.74;48.79
-5.12;0.76;6.64;-5.23;-1.74;30.27
6.97;5.66;5.88;-2.83;3.92;10.89
-24.39;-1.63;-1.42;0.33;4.68;4.46
2.94;-3.27;0.98;-2.07;5.55;-10.89
0.54;0.76;-2.18;35.83;-8.93;-19.71
4.57;1.63;-1.42;-2.07;5.55;-18.95
-2.72;1.63;-24.72;-2.83;7.08;-22.98
27.99;1.63;-5.44;9.26;17.64;-22.98
-1.09;-6.43;-3.81;11.65;20.04;-14.92
-30.06;-6.43;-11.87;10.89;21.67;-22.98
-2.72;-2.40;-6.21;9.26;17.64;-21.34
36.81;-2.40;-2.18;5.99;11.11;-14.92
-9.15;0.76;-1.42;-0.44;11.11;-7.62
5.34;1.63;-1.42;10.89;4.68;7.73
-6.75;-1.63;2.61;8.39;4.68;16.55
2.18;-4.03;-1.42;-2.07;1.52;3.70
6.97;5.66;5.88;-1.20;7.08;28.64
0.54;-4.79;10.67;7.62;18.40;28.64
2.18;4.03;6.64;3.59;5.55;23.85
0.54;2.40;9.04;-0.44;-17.86;33.43
29.51;39.42;9.04;-32.67;-38.77;30.27
2.94;0.76;5.88;1.20;-44.43;19.82
-3.48;0.76;4.25;-0.44;-35.61;2.07
-4.25;-1.63;-0.54;-6.10;-20.26;-9.26
20.69;1.63;-1.42;-2.07;-12.96;-14.92
-9.15;3.27;-1.42;15.68;14.37;-21.34
2.94;0.76;-1.42;29.40;19.17;-22.98
-5.88;-4.03;-5.44;-5.23;10.35;-23.74
-7.51;-2.40;-7.08;-10.13;24.07;-24.50
-1.85;-5.66;-7.84;-2.07;18.40;-36.59
-4.25;-8.82;-9.47;-1.20;-0.11;-38.22
-4.25;18.51;-7.08;-3.70;-5.77;-18.95
2.94;1.63;-21.56;-4.46;-12.96;-2.83
-1.85;4.79;-2.18;-2.07;-8.93;2.07
2.18;4.03;-7.08;-3.70;-1.74;14.16
1.31;-1.63;0.22;-2.07;-5.77;18.19
-1.85;3.27;2.61;-1.20;-3.38;27.01
3.81;-0.00;12.31;-2.07;1.52;27.01
7.84;4.79;4.25;-2.83;4.68;29.40
7.84;1.63;4.25;7.62;7.08;44.76
13.39;3.27;7.51;1.96;5.55;28.64
4.57;0.76;9.04;5.23;7.95;20.58
0.54;-2.40;3.48;5.23;12.74;-1.20
-8.28;-19.38;2.61;0.33;11.11;-1.20
-6.75;5.66;2.61;5.99;5.55;-18.08
-2.72;2.40;-1.42;1.96;4.68;-22.11
0.54;5.66;-8.60;2.83;2.29;-22.11
-1.85;-9.69;-7.08;8.39;1.52;-15.68
6.21;-3.27;-11.87;6.86;3.92;-20.47
5.34;-24.94;-12.63;6.86;4.68;-27.77
-5.88;-22.54;-3.81;12.41;7.95;-27.01
3.81;-2.40;-3.81;-0.44;6.32;-22.11
2.94;0.76;-4.57;-0.44;5.55;-5.99
-9.15;-2.40;-1.42;1.96;-13.83;2.83
2.94;1.63;-0.54;-2.07;-21.02;16.55
2.94;5.66;5.88;-13.29;-16.99;17.32
2.18;4.03;10.67;-4.46;-6.53;24.61
-2.72;0.76;4.25;-13.29;4.68;22.98
-7.51;-1.63;1.85;-12.52;7.95;27.01
-4.25;1.63;7.51;-7.73;5.55;30.27
2.94;-1.63;4.25;-6.10;5.55;31.91
5.34;4.79;3.48;-2.07;-2.50;17.32
6.21;5.66;-0.54;-1.20;-9.80;2.07
2.94;8.06;-0.54;-2.83;-19.49;-10.02
2.18;-0.00;-1.42;5.23;-33.98;-21.34
2.18;-1.63;-0.54;6.86;-3.38;-22.98
1.31;-6.43;-13.50;10.02;5.55;-25.37
-0.22;-4.79;-5.44;7.62;4.68;-22.11
-4.25;10.45;-5.44;10.89;-2.50;-20.47
-5.12;1.63;-8.60;10.89;-3.38;-52.71
-1.09;5.66;-3.81;3.59;3.92;-26.14
-2.72;3.27;0.98;0.33;1.52;-15.68
2.18;1.63;-2.18;-10.89;6.32;-28.53
-4.25;-2.40;-1.42;-10.13;5.55;4.46
-6.75;-0.00;-1.42;-12.52;12.74;14.92
-22.87;0.76;1.85;1.20;14.37;24.61
6.21;-3.27;7.51;-2.07;7.08;26.24
0.54;0.76;7.51;-2.07;5.55;28.64
2.18;0.76;5.88;-6.10;5.55;27.88
2.18;0.76;6.64;-0.44;4.68;33.43
2.18;0.76;9.91;-1.20;4.68;28.64
1.31;5.66;7.51;5.23;5.55;28.64
-4.25;-30.60;0.98;1.96;-16.23;6.10
3.81;4.03;0.22;3.59;5.55;-5.99
-1.85;-2.40;20.36;2.83;9.58;-21.34
2.94;-3.27;-3.81;5.23;14.37;-21.34
-22.87;-3.27;-0.54;1.20;7.95;-22.11
-4.25;0.76;-10.24;-2.07;3.05;-18.08
-1.85;-0.00;-5.44;3.59;-7.41;-20.47
-33.32;-1.63;-8.60;10.89;-20.26;-31.80
-1.85;-3.27;-27.22;6.86;-3.38;-29.40
-1.85;3.27;-23.20;5.99;-8.17;-20.47
2.18;0.76;0.22;1.20;-21.02;-5.99
1.31;1.63;-0.54;-3.70;-27.55;2.83
-0.22;-4.03;0.98;-1.20;-15.46;8.49
-1.09;-0.00;0.98;-3.70;-19.49;11.76
0.54;1.63;-0.54;-3.70;-7.41;26.24
0.54;-2.40;1.85;-6.86;-2.50;25.37
-4.25;16.12;4.25;22.87;-11.43;24.61
-10.78;4.03;9.91;-3.70;-1.74;28.64
2.94;2.40;9.91;-4.46;4.68;30.27
2.94;0.76;9.91;-2.83;22.43;19.82
0.54;4.79;6.64;1.20;5.55;2.07
2.94;-3.27;0.22;1.96;5.55;-5.23
1.31;4.79;-1.42;4.36;1.52;-20.47
2.94;-5.66;-3.81;3.59;16.77;-15.68
2.94;20.15;-2.18;6.86;13.61;-18.95
1.31;-6.43;-4.57;1.96;20.80;-11.65
0.54;-3.27;-8.60;2.83;16.77;-18.95
2.18;1.63;-10.24;2.83;26.46;-30.93
5.34;-1.63;-4.57;2.83;14.37;-22.98
6.97;-2.40;-2.18;3.59;11.11;-7.62
0.54;20.15;-1.42;-0.44;-0.11;-5.23
-8.28;4.03;-1.42;-2.07;-14.59;2.83
-5.88;4.79;-1.42;-2.07;-13.83;18.19
-1.09;-4.79;-1.42;-2.83;-20.26;41.49
-5.12;-9.69;7.51;-0.44;-5.77;27.01
-5.88;1.63;7.51;1.96;-1.74;26.24
2.94;5.66;6.64;-2.07;-0.11;27.01
-2.72;-4.79;3.48;-2.83;5.55;32.67
2.94;5.66;7.51;-1.20;11.11;28.64
3.81;5.66;4.25;-2.83;-0.87;41.49
0.54;-6.43;0.98;-6.10;-7.41;1.20
-12.31;-7.30;-0.54;-6.86;-12.20;-10.89
2.94;4.79;-1.42;25.37;-12.20;-21.34
11.00;3.27;-2.18;-2.83;-10.56;-22.98
2.94;-1.63;-9.47;-2.07;-4.14;-27.01
1.31;-1.63;-1.42;-2.07;-8.17;-33.43
-5.12;-20.15;-5.44;-2.83;-7.41;-30.17
-1.09;-5.66;-0.54;-0.44;-1.74;-31.80
-0.22;-1.63;-3.05;8.39;3.05;2.83
2.94;-3.27;-1.42;2.83;6.32;11.76
2.94;-0.00;-2.18;-4.46;22.43;3.70
-4.25;4.03;-9.47;3.59;23.20;14.92
2.18;-3.27;-19.17;1.20;18.40;0.44
-1.85;1.63;2.61;-2.07;3.92;25.37
-22.00;5.66;0.98;0.33;-8.17;0.44
14.27;-1.63;3.48;-9.26;-15.46;27.88
5.34;0.76;11.54;1.96;-1.74;26.24
-5.88;-3.27;-1.42;-10.13;6.32;36.70
-14.81;5.66;7.51;-2.83;5.55;28.64
-2.72;6.43;-3.05;-4.46;1.52;15.79
-17.21;4.03;1.85;-10.13;-0.87;2.83
0.54;0.76;3.48;-1.20;5.55;-9.26
2.94;4.79;-5.44;1.96;5.55;-30.93
1.31;-2.40;-1.42;10.02;-4.90;-22.98
-1.09;5.66;-2.18;6.86;-20.26;-20.47
2.94;-17.75;-3.05;11.65;-28.31;-22.11
0.54;-1.63;-0.54;10.89;-21.02;-21.34
1.31;0.76;-19.93;5.99;-11.43;-26.14
-33.32;-0.76;-5.44;-4.46;10.35;-35.83
0.54;-5.66;-5.44;-5.23;14.37;-22.98
7.84;-2.40;-2.18;-12.52;5.55;-10.02
2.94;-4.79;-0.54;-14.16;12.74;2.83
-11.54;25.81;-1.42;-14.16;10.35;10.13
1.31;-4.03;0.22;-3.70;20.04;24.61
6.97;4.79;0.98;-10.89;-7.41;22.98
2.94;0.76;-0.54;-3.70;-9.80;27.01
-30.06;1.63;-0.54;-6.86;-17.86;26.24
-1.09;2.40;4.25;-3.70;-0.87;34.30
13.39;1.63;5.88;-1.20;-14.59;28.64
-8.28;-2.40;5.88;-2.07;-6.53;15.79
-5.12;5.66;4.25;3.59;-2.50;-10.02
-6.75;31.36;4.25;5.99;1.52;-13.29
-10.78;3.27;-0.54;9.26;5.55;-17.32
2.94;-1.63;0.22;10.02;3.05;-20.47
2.94;-5.66;-4.57;8.39;6.32;-22.11
2.18;-1.63;-8.60;11.65;10.35;-22.11
4.57;6.43;-3.05;10.89;16.01;-21.34
2.18;1.63;-1.42;8.39;15.14;-30.17
5.34;-1.63;-7.08;3.59;22.43;-21.34
3.81;-7.30;-1.42;7.62;12.74;-10.02
-1.85;0.76;-1.42;0.33;10.35;2.83
-1.85;0.76;-0.54;-2.07;4.68;4.46
2.94;-1.63;0.98;-2.07;0.65;18.95
4.57;5.66;-23.96;-2.07;1.52;26.24
-1.85;4.03;0.98;-2.07;4.68;36.70
-1.09;4.79;2.61;35.83;1.52;28.64
-9.15;0.76;4.25;-4.46;-6.53;39.97
-5.12;5.66;4.25;-9.26;-1.74;33.43
1.31;3.27;11.54;-7.73;-12.20;22.98
0.54;-1.63;8.28;-10.13;-8.17;14.16
1.31;5.66;2.61;-0.44;-1.74;11.76
11.87;-1.63;1.85;-3.70;-4.90;-10.02
-2.72;-2.40;-1.42;-2.07;-16.23;-22.11
-1.85;1.63;-3.05;-0.44;-10.56;-22.98
11.87;2.40;-3.81;0.33;-12.96;-26.14
2.94;-0.00;-1.42;8.39;-3.38;-17.32
-31.69;-6.43;-4.57;0.33;-1.74;-22.98
-1.85;-2.40;-6.21;-0.44;-8.17;-35.83
4.57;-1.63;-3.05;-14.16;-0.11;-31.80
28.75;-5.66;-6.21;-2.07;5.55;-22.11
0.54;-1.63;-3.81;1.20;5.55;0.44
-4.25;0.76;-1.42;-0.44;7.08;3.70
-5.12;-7.30;-1.42;2.83;9.58;20.58
-4.25;0.76;-1.42;14.92;2.29;28.64
0.54;5.66;-1.42;-3.70;-0.11;27.88
0.54;1.63;0.22;0.33;4.68;28.64
-0.22;4.79;1.85;-2.07;1.52;28.64
-12.31;3.27;3.48;-6.86;-1.74;35.07
2.94;17.75;6.64;-14.92;-6.53;30.27
-1.85;4.03;2.61;-5.23;-5.77;11.76
7.84;11.22;0.22;32.56;-5.77;2.07
-1.09;3.27;-1.42;0.33;-6.53;-13.29
2.94;2.40;-1.42;1.20;-3.38;-20.47
1.31;4.79;-1.42;6.86;-8.17;-23.74
-25.26;0.76;-2.18;1.96;-6.53;-34.19
-1.85;-5.66;-5.44;5.23;-0.11;-27.77
-1.85;-4.79;6.64;6.86;1.52;-23.74
-1.09;-5.66;-9.47;8.39;-18.62;-30.17
-6.75;-1.63;-6.21;-1.20;5.55;-28.53
-5.88;-5.66;-8.60;6.86;5.55;-22.11
6.97;-0.00;-1.42;-0.44;13.61;5.23
-8.28;-1.63;-0.54;-0.44;16.77;14.16
14.27;3.27;17.10;1.20;16.77;27.88
11.00;-2.40;0.98;0.33;9.58;23.85
2.18;4.03;1.85;-2.07;5.55;28.64
4.57;0.76;0.22;2.83;-0.11;15.79
-4.25;-0.00;4.25;-10.13;-4.14;30.27
11.00;3.27;9.91;-10.13;-1.74;40.73
6.97;4.79;0.98;-2.07;-8.93;29.40
2.18;4.03;3.48;10.89;-12.96;11.76
-25.26;1.63;4.25;-2.07;-11.43;-1.20
-5.12;4.03;-1.42;-2.07;-4.90;-30.93
-5.88;3.27;-0.54;1.96;9.58;-22.98
-1.09;3.27;-18.30;2.83;16.01;-22.98
-42.91;3.27;-2.18;10.02;28.86;-18.95
-6.75;3.27;-8.60;15.68;31.25;-22.11
-8.28;-3.27;-3.81;10.89;36.15;-18.08
-5.12;-0.00;-6.21;8.39;28.10;-27.01
-10.78;-1.63;-3.05;6.86;-1.74;-30.17
1.31;-3.27;9.04;-2.83;-29.08;-17.32
-4.25;-3.27;-5.44;-6.10;-43.67;-9.26
11.00;-0.00;-0.54;-10.89;-53.25;7.73
1.31;2.40;-1.42;-14.16;-54.89;17.32
2.94;4.79;0.98;-9.26;-53.25;18.95
3.81;-20.15;0.98;-14.16;-46.06;26.24
6.97;-6.43;-0.54;-2.83;-20.26;28.64
-15.57;-1.63;0.98;1.96;5.55;11.76
-12.31;-0.00;4.25;7.62;20.04;31.04
-2.72;-2.40;3.48;2.83;32.89;10.89
-3.48;-17.75;2.61;-1.20;32.89;11.76
-7.51;4.79;-3.81;-2.07;12.74;2.83
-1.09;-21.78;4.25;-0.44;21.67;-10.89
-4.25;3.27;-1.42;-2.83;18.40;-17.32
-32.45;-3.27;8.28;-2.07;6.32;-22.11
-4.25;-1.63;-3.05;-2.83;5.55;-22.11
14.27;3.27;-11.87;0.33;7.95;-23.74
2.94;-1.63;-10.24;5.23;5.55;-23.74
0.54;-1.63;-3.05;5.99;3.92;-30.93
2.18;1.63;-1.42;5.23;5.55;-30.17
1.31;5.66;-2.18;-2.07;-0.11;-17.32
3.81;-2.40;-0.54;3.59;4.68;-0.33
7.84;5.66;4.25;0.33;5.55;4.46
-5.12;-2.40;0.98;2.83;-2.50;22.98
2.18;-0.00;4.25;2.83;-2.50;47.15
-5.88;5.66;4.25;0.33;-3.38;22.98
8.60;3.27;4.25;2.83;3.92;28.64
-9.91;4.03;4.25;-2.07;7.95;31.04
1.31;4.79;6.64;2.83;18.40;31.04
-4.25;-2.40;6.64;0.33;-9.80;29.40
-1.09;-4.03;0.22;1.96;3.05;17.32
-13.18;3.27;3.48;5.23;-8.17;2.83
-8.28;-3.27;5.88;6.86;-1.74;-5.99
-5.12;-4.03;-1.42;0.33;0.65;-19.71
0.54;3.27;-3.05;-2.07;3.92;-22.98
33.54;-2.40;-8.60;-27.01;1.52;-22.98
2.94;1.63;-2.18;-2.07;-4.90;-22.98
-1.09;1.63;-3.05;-2.07;-13.83;-22.98
-5.12;3.27;-8.60;-2.07;-15.46;-38.22
15.03;3.27;-3.81;-2.83;-20.26;-31.80
-4.25;-1.63;-3.05;-0.44;-21.02;-27.77
1.31;4.03;-3.05;-1.20;-31.58;-9.26
-1.09;15.25;-3.81;-22.22;-25.05;2.83
-2.72;-0.00;-2.18;-6.10;-1.74;14.92
15.90;-3.27;1.85;-2.07;3.05;18.95
-5.88;-3.27;-2.18;-2.07;19.17;31.04
-2.72;-5.66;-1.42;-4.46;20.80;31.04
2.94;-0.00;-16.66;-0.44;24.07;46.39
0.54;4.03;5.88;-2.83;30.49;40.73
-5.12;3.27;8.28;-2.07;21.67;32.67
-26.90;1.63;8.28;-6.10;11.98;18.19
-5.88;1.63;5.88;-2.83;-4.90;3.70
-2.72;-2.40;0.22;1.20;5.55;10.13
-5.88;1.63;2.61;1.96;3.92;-18.95
-4.25;0.76;-1.42;10.02;7.08;-24.50
17.42;-3.27;-3.05;3.59;7.95;-23.74
-4.25;0.76;-6.21;-13.29;3.05;-25.37
-8.28;-1.63;-3.05;0.33;-1.74;-26.14
-22.87;5.66;-11.87;-2.83;-13.83;-33.43
-1.09;-0.76;-7.08;13.29;-16.23;-34.96
14.27;1.63;-9.47;-1.20;-19.49;-18.08
3.81;1.63;-3.05;-6.10;-20.26;-1.20
6.97;-4.03;-1.42;-2.07;-17.86;16.55
6.97;1.63;0.22;2.83;-16.23;23.85
-2.72;2.40;0.98;-2.07;-16.23;25.37
-5.12;-6.43;-0.54;2.83;-2.50;40.73
2.94;-3.27;-26.35;-6.10;9.58;33.43
1.31;-3.27;6.64;6.86;12.74;32.67
-2.72;-1.63;4.25;-5.23;14.37;37.46
0.54;3.27;4.25;-6.10;20.04;37.46
2.94;1.63;-2.18;-2.07;22.43;-0.33
0.54;5.66;3.48;-1.20;22.43;0.44
1.31;-4.79;-1.42;2.83;19.17;-32.56
-4.25;-19.38;-1.42;-2.07;3.05;-14.05
-2.72;2.40;-3.05;2.83;-4.90;-22.98
-2.72;-4.03;-2.18;5.23;0.65;-21.34
-0.22;-0.00;-3.81;1.20;5.55;-20.47
2.94;-2.40;-6.21;-1.20;5.55;-22.98
-4.25;-4.79;-8.60;-1.20;5.55;-10.89
-8.28;-2.40;-11.87;-1.20;1.52;-48.68
-8.28;-6.43;-3.81;0.33;-5.77;-24.50
19.93;-0.00;-1.42;18.08;-8.17;-10.02
-5.88;-5.66;3.48;0.33;-6.53;2.83
-7.51;1.63;-1.42;-2.07;-0.11;1.20
3.81;4.79;0.22;2.83;5.55;22.98
3.81;-0.00;4.25;12.41;-4.90;29.40
2.94;-2.40;6.64;3.59;-20.26;28.64
3.81;4.03;8.28;-2.07;-16.23;27.01
0.54;-3.27;1.85;0.33;-4.90;39.10
3.81;-7.30;0.98;-6.10;0.65;27.88
1.31;1.63;2.61;-6.10;5.55;18.95
-1.85;4.79;2.61;-6.10;5.55;5.23
-8.28;3.27;2.61;-4.46;-0.11;-13.29
-12.31;-7.30;-1.42;5.99;-12.20;-14.92
26.35;-12.09;-3.81;-1.20;-17.86;-22.98
1.31;-0.00;-11.87;3.59;-18.62;-24.50
-5.12;0.76;-8.60;5.99;-18.62;-21.34
3.81;-1.63;0.22;6.86;-3.38;-18.08
3.81;-4.03;-6.21;3.59;9.58;-34.19
2.94;4.03;-6.21;0.33;17.64;-30.17
19.93;-0.00;-8.60;-1.20;16.01;-22.98
-4.25;-4.03;-1.42;-2.07;5.55;-1.96
0.54;3.27;-0.54;5.23;5.55;6.86
-4.25;12.09;-1.42;10.02;5.55;20.58
-0.22;1.63;-7.08;10.02;4.68;27.88
-10.78;1.63;9.04;0.33;8.71;26.24
0.54;-0.00;-0.54;-6.86;7.95;29.40
-1.85;-1.63;2.61;-3.70;0.65;28.64
2.18;3.27;7.51;-9.26;15.14;33.43
2.94;4.79;5.88;-2.83;17.64;31.91
2.18;5.66;7.51;-4.46;14.37;21.34
2.94;0.76;6.64;-0.44;11.11;5.23
-1.09;16.88;2.61;-2.07;4.68;-9.26
-11.54;-3.27;-1.42;-1.20;6.32;-22.98
-4.25;0.76;-1.42;0.33;-14.59;-22.98
-4.25;3.27;-3.05;-1.20;-22.65;-22.98
-8.28;5.66;-9.47;5.99;-30.71;-23.74
2.18;4.03;-8.60;-14.92;-25.05;-18.95
-1.85;3.27;-1.42;-4.46;-20.26;-30.93
15.90;-1.63;-2.18;-0.44;-11.43;-23.74
0.54;-4.79;-1.42;0.33;14.37;-14.05
2.94;-7.30;-2.18;-0.44;5.55;-2.83
-19.60;-3.27;-0.54;-3.70;17.64;7.73
3.81;-0.00;0.22;3.59;33.76;29.40
2.94;-3.27;2.61;2.83;41.82;23.85
-0.22;1.63;3.48;31.80;28.86;28.64
-5.88;-1.63;3.48;1.96;7.08;43.12
1.31;0.76;2.61;0.33;-12.96;15.79
0.54;3.27;4.25;-2.07;-20.26;28.64
1.31;20.91;11.54;-6.10;-20.26;28.64
-5.12;0.76;22.00;-4.46;-20.26;15.79
-1.09;0.76;1.85;2.83;-16.23;-1.96
1.31;4.03;2.61;-23.85;-9.80;7.73
-1.09;-0.00;-6.21;3.59;1.52;-18.08
1.31;-0.00;-1.42;6.86;7.08;-21.34
2.94;-0.00;-1.42;-3.70;7.08;-22.98
5.34;-0.00;-2.18;3.59;11.11;-22.11
1.31;4.79;-6.21;5.99;-0.11;-22.98
2.94;-0.00;-5.44;3.59;2.29;-32.56
2.94;16.12;-4.57;10.02;-5.77;-31.80
2.94;-0.00;-7.08;0.33;7.95;-19.71
-1.85;-4.03;-1.42;-2.07;-5.77;-8.39
-1.09;3.27;-0.54;-2.07;4.68;2.07
-1.09;-2.40;-1.42;-17.32;4.68;15.79
4.57;0.76;-19.17;-2.07;3.05;18.19
4.57;1.63;-3.81;-1.20;2.29;5.23
5.34;-4.79;4.25;-4.46;5.55;28.64
-1.09;-2.40;4.25;-35.07;5.55;29.40
2.94;5.66;3.48;-14.92;7.95;37.46
1.31;5.66;7.51;-6.10;14.37;56.85
-9.91;8.06;26.03;-6.10;27.22;16.55
-37.35;1.63;6.64;0.33;6.32;1.20
-10.78;-3.27;4.25;1.96;6.32;-8.39
0.54;16.12;-1.42;3.59;9.58;-17.32
-3.48;-3.27;-2.18;5.23;7.95;-24.50
-0.22;3.27;-3.81;-1.20;6.32;-19.71
-2.72;0.76;-5.44;5.23;2.29;-23.74
-1.85;-0.00;-8.60;-0.44;3.05;-19.71
2.94;0.76;-22.32;1.96;-0.87;-20.47
1.31;-4.79;-8.60;-0.44;-2.50;-30.93
2.94;0.76;-3.81;2.83;-6.53;-17.32
36.81;-2.40;-1.42;-2.83;-11.43;-4.36
1.31;-1.63;1.85;-0.44;-10.56;-3.59
32.78;-2.40;4.25;-2.07;-0.11;18.19
2.94;-0.76;6.64;-3.70;-3.38;22.98
2.18;0.76;0.22;-6.86;-1.74;26.24
-7.51;0.76;5.88;-4.46;10.35;27.01
-1.85;5.66;3.48;6.86;5.55;28.64
-4.25;5.66;7.51;-9.26;-2.50;33.43
-5.12;-14.48;9.91;-2.83;-21.89;25.37
-5.88;-12.85;1.85;-3.70;-40.40;10.13
-7.51;3.27;6.64;5.99;-29.08;2.83
-12.31;3.27;22.00;10.02;-19.49;-7.62
1.31;-4.79;-2.18;-0.44;1.52;-22.11
2.94;1.63;-0.54;2.83;5.55;-20.47
2.94;-4.03;-3.81;-9.26;11.11;-22.98
14.27;17.75;-3.05;22.87;20.04;-24.50
-1.09;-0.76;-8.60;-2.07;13.61;-22.98
16.66;-1.63;-7.08;-2.07;6.32;-27.77
-1.85;-2.40;-4.57;5.23;15.14;-25.37
-18.84;-4.79;-3.81;8.39;18.40;-14.92
-2.72;-0.00;2.61;-9.26;13.61;2.83
0.54;-4.03;-1.42;5.23;5.55;18.19
0.54;2.40;0.98;2.83;5.55;2.83
2.18;1.63;-0.54;5.99;-1.74;27.88
2.94;-1.63;4.25;1.20;1.52;28.64
-1.09;5.66;-1.42;-7.73;0.65;32.67
3.81;5.66;4.25;3.59;16.01;28.64
2.94;3.27;0.98;-3.70;17.64;34.30
2.94;4.03;-19.93;1.96;28.86;24.61
-5.12;2.40;4.25;3.59;22.43;18.19
0.54;-4.79;-3.05;6.86;10.35;4.46
6.97;4.79;3.48;3.59;-4.90;-9.26
6.97;1.63;-2.18;6.86;-27.55;-22.11
3.81;-5.66;-25.59;3.59;-51.73;-43.02
-2.72;0.76;-3.81;-2.07;-70.24;-27.77
1.31;-1.63;-8.60;8.39;-50.86;-28.53
0.54;-3.27;-6.21;33.43;-31.58;-30.17
7.84;-7.30;-13.50;-2.07;-11.43;-37.46
2.18;2.40;-9.47;-9.26;7.08;-61.64
0.54;1.63;-3.81;2.83;30.49;-17.32
2.18;3.27;-2.18;-10.89;6.32;-10.02
-11.54;-7.30;-3.81;-10.13;16.77;7.73
2.94;-1.63;0.22;-6.10;5.55;14.92
-26.90;-1.63;-3.05;-2.07;10.35;47.15
-20.36;-1.63;4.25;1.96;20.04;25.37
-9.15;11.22;2.61;1.20;29.73;31.04
-5.12;4.03;2.61;6.86;9.58;39.10
-5.12;4.79;0.98;0.33;11.11;39.97
2.18;-1.63;0.98;10.89;-8.17;2.83
3.81;4.79;4.25;-3.70;-12.96;14.92
2.94;1.63;2.61;-2.07;-12.20;2.83
6.97;4.79;0.22;0.33;0.65;-7.62
6.97;0.76;-1.42;1.96;3.92;-15.68
15.03;7.19;-2.18;36.59;-1.74;-18.08
2.94;-4.79;-6.21;10.89;-1.74;-21.34
-4.25;0.76;-11.11;2.83;-8.17;-20.47
-0.22;-1.63;-10.24;-2.07;-11.43;-22.98
2.94;1.63;-3.81;-1.20;15.14;-28.53
2.94;-1.63;-4.57;3.59;3.92;-31.80
-4.25;3.27;-1.42;-14.16;2.29;-18.08
15.03;0.76;-5.44;3.59;1.52;-5.99
-1.85;1.63;-1.42;-2.07;6.32;1.20
-14.81;1.63;0.98;6.86;5.55;13.29
-8.28;-0.00;0.22;-2.07;7.95;27.88
-0.22;4.03;-0.54;-1.20;9.58;20.58
2.18;1.63;2.61;21.34;1.52;31.91
1.31;6.43;2.61;-1.20;-6.53;28.64
2.94;-2.40;4.25;-2.07;-4.90;35.94
2.94;3.27;7.51;-27.88;0.65;32.67
4.57;1.63;2.61;-1.20;-0.11;18.95
6.97;4.03;16.33;-2.07;-3.38;-9.26
2.18;-3.27;-1.42;1.20;-18.62;-18.95
1.31;-2.40;-8.60;1.96;5.55;-14.92
-1.85;-5.66;-1.42;1.20;1.52;-23.74
1.31;4.79;-6.21;8.39;14.37;-21.34
-4.25;-1.63;-3.81;1.96;9.58;-18.95
2.94;-5.66;-5.44;7.62;5.55;-32.56
2.94;-6.43;-7.08;-2.07;-17.86;-26.14
4.57;-4.79;-3.05;1.96;5.55;-22.98
2.94;1.63;-1.42;-1.20;-0.11;-17.32
2.94;-7.30;-14.27;-2.07;4.68;-1.20
-4.25;-0.00;-1.42;-3.70;-3.38;-0.33
0.54;-3.27;-1.42;-36.70;1.52;22.98
2.94;-3.27;5.88;-9.26;14.37;22.98
-8.28;4.03;6.64;5.99;19.17;28.64
2.94;-1.63;3.48;6.86;26.46;28.64
-27.66;-2.40;10.67;2.83;20.04;28.64
-5.12;-0.00;3.48;-1.20;9.58;31.04
0.54;1.63;10.67;6.86;-0.11;28.64
-12.31;13.72;6.64;23.74;-0.11;12.52
1.31;-3.27;0.98;5.99;-27.55;4.46
-1.09;-1.63;0.98;-2.83;-46.06;-17.32
7.84;3.27;-1.42;5.99;-53.25;-25.37
2.18;0.76;-6.21;-3.70;-50.09;-22.98
8.60;-2.40;-9.47;-4.46;-31.58;-22.11
-1.85;-3.27;-11.87;-5.23;-8.93;-22.98
0.54;-4.03;-6.21;-10.89;31.25;-20.47
-1.09;-2.40;-6.21;-4.46;7.95;-23.74
-1.09;-3.27;-3.81;-1.20;16.77;-27.01
2.94;-3.27;-5.44;1.96;16.77;-10.02
-10.78;-1.63;-5.44;-1.20;20.80;1.20
0.54;-8.06;-3.05;1.96;20.04;7.73
-10.78;2.40;-1.42;-13.29;22.43;13.29
-1.09;-4.03;3.48;-2.07;31.25;41.49
-4.25;4.79;2.61;1.96;40.18;22.98
-1.09;-4.03;3.48;5.23;16.77;28.64
-1.85;-0.00;5.88;-2.07;6.32;28.64
-0.22;2.40;3.48;1.20;-8.17;40.73
1.31;5.66;5.88;-1.20;-16.99;21.34
3.81;3.27;3.48;-4.46;-25.05;14.92
-6.75;5.66;5.88;1.20;-12.96;2.83
-5.12;6.43;2.61;-2.07;-19.49;-12.41
-1.85;-4.03;-2.18;0.33;-14.59;-23.74
2.94;2.40;-2.18;1.96;-29.08;-22.98
-7.51;1.63;-4.57;6.86;3.05;-12.41
-2.72;-0.00;-5.44;10.02;12.74;-17.32
-1.09;1.63;-8.60;2.83;22.43;-15.68
2.94;-3.27;-3.05;5.99;20.04;-23.74
26.35;-24.94;-5.44;10.02;31.25;-22.98
13.39;0.76;-0.54;3.59;16.77;-22.98
2.94;8.06;-0.54;-14.92;16.01;2.83
3.81;0.76;1.85;-0.44;5.55;14.92
-21.24;3.27;0.98;7.62;-5.77;20.58
3.81;5.66;14.70;8.39;-21.89;28.64
-2.72;1.63;6.64;-6.86;-23.52;26.24
-7.51;4.79;0.98;-2.83;-32.34;24.61
-5.12;5.66;8.28;-0.44;-23.52;23.85
-2.72;4.03;2.61;-14.92;-11.43;28.64
-5.12;3.27;6.64;-14.92;-4.90;21.34
-1.85;11.22;-0.54;-6.10;2.29;2.83
-6.75;-14.48;1.85;-2.07;5.55;-5.99
-0.22;-5.66;0.22;5.99;5.55;-18.08
0.54;1.63;-0.54;-0.44;5.55;-25.37
-5.12;-1.63;-3.81;2.83;6.32;-22.98
-4.25;-0.00;-1.42;8.39;12.74;-40.62
-0.22;4.03;-3.81;36.59;6.32;-27.01
-24.39;22.54;-3.81;13.29;11.11;-18.08
-6.75;-3.27;-1.42;5.99;7.08;-30.93
-1.09;-2.40;-12.63;8.39;5.55;-24.50
-1.09;-1.63;-3.81;5.23;-21.02;-16.44
0.54;-4.03;-1.42;1.96;-1.74;2.83
-36.48;-2.40;-2.18;1.96;-5.77;13.29
-3.48;-0.00;-1.42;1.96;0.65;23.85
0.54;1.63;-7.08;0.33;-1.74;28.64
11.87;3.27;1.85;-6.86;-0.11;45.52
0.54;2.40;-1.42;-1.20;-14.59;29.40
2.18;4.03;0.98;-2.07;3.92;24.61
-5.12;4.79;3.48;1.96;3.05;37.46
-5.12;1.63;9.91;3.59;3.05;29.40
-22.87;-3.27;3.48;2.83;28.86;17.32
6.97;-5.66;2.61;34.19;31.25;6.10
2.94;-1.63;4.25;-2.07;25.70;-5.99
6.21;1.63;-0.54;2.83;10.35;-18.08
23.09;0.76;-1.42;5.99;-1.74;-21.34
5.34;1.63;-6.21;-16.55;-5.77;-22.11
-5.88;-2.40;-8.60;-22.22;-7.41;-22.98
2.94;-2.40;-3.05;1.20;-15.46;-2.83
-3.48;-1.63;-8.60;-2.83;-19.49;-33.43
-5.88;-0.00;-6.21;1.96;-23.52;-32.56
-4.25;-0.00;-3.81;-1.20;-25.92;-35.83
-4.25;-7.30;-1.42;-2.83;-17.86;-4.36
0.54;3.27;4.25;-2.83;-5.77;7.73
2.18;4.79;-3.81;0.33;7.08;7.73
0.54;3.27;5.88;-2.83;5.55;17.32
2.94;1.63;2.61;-2.07;7.08;27.88
-1.85;3.27;7.51;-8.49;3.05;27.88
-1.09;1.63;21.13;1.20;3.92;26.24
-5.88;4.03;6.64;-2.07;0.65;35.94
0.54;-2.40;4.25;-2.83;-3.38;23.85
2.94;3.27;7.51;-6.86;-2.50;10.13
2.94;0.76;5.88;0.33;0.65;2.07
2.94;5.66;18.73;-0.44;-3.38;-7.62
-5.12;-2.40;4.25;-0.44;-0.11;-39.86
2.94;3.27;-3.05;5.23;3.05;-17.32
3.81;-0.00;-3.05;-0.44;28.86;-20.47
-9.15;0.76;-16.66;-2.83;-3.38;-47.92
1.31;-2.40;-15.14;-0.44;0.65;-17.32
-1.09;-7.30;-3.81;34.19;4.68;-30.17
-7.51;1.63;-23.20;8.39;19.17;-27.77
-4.25;-4.79;-3.05;-2.83;28.86;-14.92
-1.09;1.63;-1.42;3.59;12.74;-1.96
2.18;-1.63;-2.18;8.39;-8.17;12.52
-4.25;-0.00;-1.42;-1.20;-17.86;20.58
2.18;4.79;1.85;24.50;-20.26;28.64
2.94;0.76;-0.54;-3.70;0.65;28.64
2.18;5.66;4.25;-7.73;5.55;29.40
2.94;3.27;0.98;-9.26;33.76;29.40
13.39;1.63;4.25;-7.73;11.11;39.10
2.94;3.27;7.51;-6.86;0.65;29.40
2.94;5.66;13.07;-1.20;-5.77;12.52
1.31;5.66;-8.60;-0.44;-3.38;-10.02
-30.06;-0.00;-0.54;3.59;-5.77;-10.02
-5.88;39.42;-1.42;14.92;-4.90;-22.98
-1.09;-1.63;-3.05;-10.89;1.52;-22.98
0.54;-4.79;0.98;5.23;3.92;-22.98
-11.54;-4.03;-5.44;22.87;-1.74;-21.34
4.57;-5.66;-27.22;0.33;-2.50;-22.11
2.94;-2.40;-3.05;0.33;-2.50;-34.19
2.94;-3.27;-18.30;2.83;1.52;-27.77
2.18;-3.27;-13.50;1.96;2.29;-20.47
0.54;5.66;-1.42;0.33;-1.74;-2.83
2.94;-1.63;-1.42;27.77;-0.11;10.13
1.31;1.63;-1.42;1.96;0.65;14.16
-13.94;0.76;-0.54;2.83;-1.74;-2.83
1.31;5.66;2.61;-0.44;5.55;28.64
1.31;5.66;1.85;-1.20;5.55;34.30
2.18;0.76;5.01;-4.46;16.77;28.64
10.24;1.63;5.88;-1.20;19.17;45.52
2.94;4.79;9.04;-2.07;16.77;31.04
1.31;2.40;2.61;-6.10;13.61;14.92
0.54;6.43;0.22;-2.07;7.95;1.20
1.31;4.03;0.98;-6.10;-4.14;-21.34
2.94;-2.40;-0.54;-2.83;-19.49;-21.34
2.94;5.66;-6.21;5.99;-29.08;-17.32
2.94;-3.27;-15.14;11.65;-25.05;-22.98
2.18;-1.63;-3.81;8.39;-19.49;-24.50
1.31;-1.63;-7.08;5.99;-12.96;-37.46
1.31;-4.79;-5.44;-2.07;-14.59;-30.17
0.54;-5.66;-8.60;-6.10;-5.77;-22.98
1.31;-1.63;11.54;-4.46;-5.77;-17.32
2.94;3.27;22.00;-14.92;-1.74;-5.23
-1.09;5.66;33.21;-3.70;14.37;10.89
2.94;-2.40;32.45;-3.70;7.95;20.58
-9.15;2.40;35.61;-2.07;6.32;25.37
-2.72;-0.00;13.94;-2.07;9.58;24.61
-3.48;0.76;30.06;-0.44;9.58;27.88
-4.25;-3.27;26.79;-3.70;14.37;24.61
-5.12;0.76;24.39;4.36;10.35;14.16
-4.25;-1.63;24.39;1.96;9.58;30.27
-2.72;5.66;18.73;-2.83;6.32;15.79
-0.22;6.43;9.04;-2.07;-0.11;5.23
0.54;4.79;13.94;-1.20;3.92;-9.26
4.57;-1.63;3.48;-12.52;5.55;-17.32
2.94;-1.63;-0.54;0.33;12.74;-17.32
1.31;5.66;-4.57;5.99;20.80;-21.34
0.54;1.63;-3.81;8.39;17.64;-23.74
2.18;-0.00;-8.60;6.86;3.05;-27.01
11.00;-4.79;-9.47;0.33;-17.86;-27.77
5.34;-4.79;-14.27;5.99;-23.52;-30.17
11.87;-1.63;-37.68;5.23;-28.31;-20.47
7.84;-5.66;-8.60;-1.20;-21.02;2.83
5.34;0.76;-3.81;-4.46;-11.43;13.29
8.60;-4.79;-6.21;-16.55;0.65;27.88
6.97;-0.00;-2.18;-9.26;7.95;27.88
2.94;0.76;6.64;-2.07;4.68;29.40
-1.09;-3.27;-1.42;-2.07;5.55;27.01
-2.72;-1.63;-1.42;-2.83;5.55;18.95
-3.48;-1.63;-1.42;-2.83;8.71;14.16
-5.88;3.27;0.22;-2.07;5.55;0.44
-3.48;6.43;-0.54;-0.44;5.55;16.55
-9.15;4.03;6.64;-2.07;7.95;0.44
-3.48;1.63;-7.08;0.33;6.32;-9.26
-4.25;-2.40;-8.60;6.86;5.55;-23.74
-3.48;2.40;-15.14;6.86;3.05;-22.98
6.21;-2.40;-11.87;0.33;-4.14;-22.98
2.94;-2.40;-9.47;8.39;-3.38;-15.68
1.31;1.63;-12.63;-0.44;-8.93;-22.98
-1.09;-2.40;-12.63;7.62;-6.53;-33.43
4.57;-0.00;-11.87;-0.44;7.95;-24.50
-1.09;3.27;-10.24;-3.70;5.55;-17.32
2.94;3.27;-6.21;-1.20;9.58;-7.62
0.54;-4.03;-3.81;-2.07;12.74;11.76
2.94;5.66;9.04;-1.20;6.32;16.55
-11.54;-0.00;-3.05;-2.07;9.58;27.01
-7.51;0.76;-2.18;6.86;7.08;22.98
0.54;-0.00;15.57;6.86;7.95;3.70
2.94;5.66;-19.17;5.99;0.65;24.61
2.18;4.79;5.01;-2.07;-6.53;28.64
2.94;4.79;4.25;-9.26;-2.50;28.64
-17.97;5.66;2.61;-2.83;5.55;16.55
0.54;5.66;9.91;0.33;21.67;1.20
1.31;1.63;2.61;8.39;31.25;-14.05
-22.87;1.63;-7.08;1.96;-6.53;-22.98
1.31;5.66;-2.18;-3.70;-63.82;-25.37
4.57;5.66;-5.44;-14.92;-47.70;-22.98
31.15;0.76;-2.18;-0.44;-46.06;-38.22
0.54;3.27;-10.24;1.96;-32.34;-22.98
-7.51;-4.79;-13.50;6.86;-20.26;-34.96
-5.88;-1.63;-0.54;-2.07;-11.43;-25.37
-9.15;-4.79;-10.24;-2.07;3.92;-17.32
-9.15;0.76;-5.44;-32.67;-2.50;-5.23
5.34;3.27;-1.42;-0.44;23.20;15.79
2.94;-1.63;0.22;-3.70;26.46;29.40
0.54;-0.00;-1.42;-2.83;31.25;15.79
2.94;0.76;0.98;-0.44;17.64;25.37
3.81;3.27;-1.42;-0.44;20.04;34.30
2.94;0.76;5.88;0.33;15.14;31.04
2.94;3.27;5.88;2.83;11.11;60.11
1.31;0.76;4.25;-2.83;6.32;28.64
-1.09;1.63;4.25;-13.29;0.65;14.16
-4.25;0.76;2.61;6.86;-2.50;2.83
-1.09;0.76;-15.14;2.83;1.52;-2.83
0.54;4.79;14.70;2.83;1.52;-22.11
1.31;-1.63;-5.44;2.83;2.29;-22.98
0.54;5.66;-10.24;-0.44;3.05;2.83
0.54;-0.00;-7.08;0.33;2.29;-17.32
1.31;0.76;-2.18;5.99;-0.11;-19.71
2.94;-1.63;-8.60;5.99;-5.77;-30.93
2.94;-4.79;-6.21;-2.07;-6.53;-25.37
2.18;-6.43;-6.21;-2.07;-4.90;-43.02
2.94;-2.40;-3.81;-27.88;-8.17;-2.83
1.31;3.27;-1.42;1.20;5.55;28.64
1.31;-4.79;0.98;2.83;11.11;19.82
0.54;3.27;-1.42;-3.70;19.17;26.24
2.94;5.66;4.25;-20.58;22.43;31.04
-1.09;4.03;8.28;0.33;16.01;31.04
-4.25;5.66;7.51;3.59;10.35;28.64
-0.22;4.79;4.25;-0.44;7.08;39.10
0.54;1.63;16.33;-0.44;-2.50;49.55
2.94;-1.63;9.04;-6.86;-18.62;10.89
2.94;3.27;-2.18;-2.83;-33.11;-1.20
2.18;5.66;5.88;-10.89;-41.16;-4.36
2.18;1.63;0.22;-6.10;-33.98;-24.50
2.94;-3.27;-4.57;29.40;-16.99;-33.43
-1.85;4.79;-10.24;-4.46;-4.90;-21.34
1.31;-5.66;-7.08;5.99;1.52;-27.01
3.81;-3.27;-3.81;-1.20;5.55;-24.50
28.75;1.63;-7.08;8.39;7.95;-28.53
3.81;-4.79;-2.18;0.33;11.11;-25.37
-5.12;4.03;-2.18;6.86;14.37;-18.08
-1.09;0.76;2.61;-1.20;16.77;2.07
2.94;-1.63;-0.54;-0.44;17.64;16.55
2.18;0.76;-1.42;-0.44;13.61;24.61
2.94;-0.00;2.61;1.20;9.58;27.88
0.54;-1.63;3.48;-0.44;5.55;36.70
11.00;4.79;9.04;-2.83;0.65;41.49
2.18;1.63;7.51;-3.70;-4.90;28.64
1.31;5.66;5.88;-2.83;-6.53;36.70
2.94;4.79;8.28;-1.20;-8.17;23.85
-1.85;4.03;9.91;1.96;-9.80;26.24
-1.85;5.66;-1.42;2.83;-6.53;2.07
-2.72;-3.27;-1.42;-1.20;-3.38;-10.02
-2.72;4.79;-1.42;-6.86;0.65;-23.74
-7.51;-2.40;-2.18;2.83;-21.02;-22.98
1.31;-1.63;-5.44;0.33;3.92;-20.47
1.31;-4.79;-3.05;7.62;10.35;-21.34
4.57;-4.79;-2.18;8.39;26.46;-10.89
7.84;5.66;-4.57;7.62;22.43;-30.93
3.81;-1.63;-8.60;-2.83;19.17;-23.74
0.54;-3.27;-0.54;-22.22;28.10;-9.26
2.94;4.03;-1.42;3.59;27.22;3.70
1.31;-0.00;-0.54;6.86;16.01;16.55
-2.72;-4.03;2.61;2.83;-9.80;26.24
1.31;-0.00;-3.81;-2.07;-15.46;16.55
2.94;3.27;-1.42;-2.07;-21.89;19.82
-1.85;1.63;0.22;-3.70;-38.01;28.64
-7.51;7.19;-0.54;-8.49;-24.28;16.55
-0.22;1.63;4.25;-6.10;-11.43;29.40
-4.25;-1.63;6.64;-5.23;3.92;29.40
2.94;2.40;4.25;-26.24;-4.14;13.29
-8.28;1.63;0.22;-6.86;-21.02;-0.33
-4.25;1.63;-1.42;-4.46;-12.96;-15.68
-7.51;0.76;0.22;-0.44;-27.55;-21.34
-1.09;-2.40;-1.42;-2.83;-20.26;0.44
-1.85;-22.54;-1.42;-2.07;-4.90;-17.32
7.84;-2.40;-1.42;-2.07;5.55;-34.19
1.31;-7.30;-7.08;1.20;17.64;-22.98
1.31;-5.66;-9.47;14.92;24.07;-28.53
1.31;3.27;-6.21;3.59;19.17;-24.50
-8.28;4.03;-1.42;3.59;27.22;-14.92
1.31;-2.40;-0.54;0.33;29.73;2.83
-2.72;-1.63;13.94;5.23;24.07;13.29
-1.09;-6.43;-13.50;-0.44;11.98;21.34
-5.12;-2.40;1.85;-2.07;5.55;25.37
-10.78;-2.40;-0.54;22.87;-6.53;24.61
1.31;-1.63;-0.54;-2.83;-3.38;24.61
6.97;-0.00;1.85;-2.83;-6.53;28.64
2.94;1.63;13.94;2.83;-0.11;37.46
2.94;-3.27;8.28;-1.20;1.52;50.42
-1.09;3.27;4.25;2.83;-6.53;14.16
-12.31;4.79;-0.54;-2.83;-12.96;2.83
-2.72;-3.27;-1.42;2.83;3.05;-14.05
1.31;1.63;-0.54;-2.07;-7.41;-22.98
1.31;2.40;-2.18;31.80;1.52;-22.11
2.94;5.66;-31.25;3.59;5.55;-18.08
4.57;-4.79;-5.44;10.89;13.61;-12.41
-0.22;-4.79;-8.60;1.96;16.77;-14.05
2.94;-0.00;-8.60;4.36;17.64;-22.98
4.57;3.27;-8.60;-18.95;5.55;-22.98
2.18;1.63;-1.42;-2.07;4.68;-14.92
-0.22;-4.79;-1.42;1.20;5.55;2.07
-4.25;-4.03;-0.54;0.33;8.71;10.13
-1.85;3.27;-3.81;3.59;7.08;19.82
2.18;3.27;-0.54;3.59;6.32;19.82
-0.22;1.63;3.48;8.39;7.95;21.34
2.94;1.63;4.25;-2.83;5.55;27.88
-1.09;1.63;5.88;-2.83;-24.28;21.34
0.54;0.76;6.64;-6.86;-33.11;28.64
2.94;-0.00;5.01;-10.89;-46.06;22.98
2.94;1.63;10.67;-3.70;-56.52;14.92
4.57;1.63;2.61;-4.46;-45.19;-2.83
-9.15;1.63;-1.42;-6.86;-22.65;-13.29
-1.09;1.63;-1.42;-0.44;4.68;-22.11
-2.72;-1.63;-2.18;9.26;22.43;-18.95
2.18;1.63;-2.18;-2.07;7.95;-25.37
5.34;-1.63;-6.21;-2.07;20.04;-22.11
-14.81;-1.63;-8.60;-2.07;28.86;-18.95
1.31;-0.00;-2.18;-0.44;28.86;-31.80
-9.91;3.27;-2.18;2.83;28.10;-22.98
0.54;-1.63;-1.42;1.96;16.77;-10.02
2.94;-3.27;-2.18;10.02;24.07;4.46
2.94;-3.27;-5.44;6.86;23.20;12.52
2.94;0.76;-0.54;0.33;18.40;31.04
7.84;1.63;0.98;0.33;6.32;28.64
0.54;0.76;0.98;1.96;-1.74;28.64
-4.25;-3.27;7.51;0.33;-15.46;28.64
2.94;1.63;2.61;-2.07;-16.23;14.16
2.94;1.63;5.01;-2.07;-18.62;28.64
-0.22;0.76;7.51;-1.20;-12.96;24.61
2.18;4.79;4.25;-32.67;-19.49;10.13
-5.88;-0.76;-19.17;-1.20;-21.02;-6.86
-1.09;0.76;0.22;-1.20;-25.92;-38.22
2.94;1.63;7.51;1.20;-19.49;-22.98
-1.85;3.27;-7.84;-26.24;-8.17;-22.98
2.94;-1.63;-12.63;-1.20;13.61;-18.95
2.94;-0.00;-15.14;0.33;24.07;-18.95
2.18;-4.79;-19.17;5.99;24.07;-21.34
2.94;-0.00;-15.90;0.33;8.71;-23.74
2.18;1.63;-18.30;-2.07;-4.90;-27.01
1.31;-2.40;-15.90;-0.44;-12.20;-14.92
-4.25;-6.43;-11.87;1.96;-4.90;-2.83
-13.18;-3.27;-11.87;-1.20;5.55;14.92
2.94;1.63;-9.47;6.86;10.35;16.55
-4.25;0.76;-1.42;24.50;-5.77;25.37
2.94;1.63;-0.54;0.33;7.95;23.85
-4.25;-28.97;-0.54;22.87;7.08;27.88
-1.09;5.66;-1.42;36.59;7.08;26.24
-1.09;3.27;0.22;-1.20;4.68;34.30
32.78;4.03;3.48;-6.10;1.52;27.01
2.94;1.63;4.25;-1.20;-3.38;14.16
1.31;2.40;6.64;1.96;-3.38;2.83
2.94;5.66;0.98;5.99;-1.74;-17.32
-31.69;-0.00;-0.54;10.89;1.52;-22.98
2.94;3.27;-2.18;0.33;14.37;-22.98
8.60;-6.43;-3.81;26.14;7.95;-22.11
2.94;0.76;-3.81;10.89;6.32;-18.08
2.18;-0.00;-7.08;9.26;-4.14;-5.99
2.94;-5.66;0.98;2.83;-19.49;-31.80
-4.25;-4.79;-11.11;2.83;-21.89;-30.17
2.94;-1.63;2.61;0.33;-20.26;-13.29
-8.28;-4.03;24.39;-0.44;-11.43;-6.86
-5.12;0.76;6.64;-2.83;-8.93;-10.02
-1.09;-1.63;9.04;-9.26;-3.38;20.58
16.66;5.66;10.67;-2.83;3.05;27.88
1.31;-3.27;22.00;-6.10;5.55;28.64
-2.72;1.63;10.67;-2.83;11.11;27.88
-7.51;5.66;10.67;-5.23;16.77;26.24
-1.09;2.40;4.25;-4.46;24.07;39.97
2.94;3.27;11.54;0.33;23.20;47.15
6.97;0.76;7.51;1.20;10.35;20.58
27.99;4.79;5.88;-0.44;2.29;2.83
-22.87;-1.63;4.25;5.23;20.80;-5.99
15.90;5.66;-3.05;10.89;23.20;-11.65
-7.51;-4.79;-3.81;9.26;17.64;-22.98
2.18;0.76;-2.18;10.89;12.74;-4.36
-1.09;-1.63;6.64;6.86;2.29;-18.95
6.97;-2.40;-2.18;5.23;-27.55;-22.98
32.78;1.63;-4.57;-3.70;-46.06;-34.96
6.97;-0.00;-2.18;-14.92;-58.15;-27.77
-1.85;15.25;-1.42;-2.83;-48.46;-21.34
0.54;-0.00;0.98;-5.23;-33.98;-8.39
2.94;-0.00;1.85;-6.10;-17.86;4.46
0.54;-3.27;0.98;-9.26;4.68;15.79
0.54;1.63;-5.44;-0.44;13.61;33.43
-4.25;4.03;-0.54;-2.07;18.40;18.19
-4.25;19.28;-1.42;-17.32;17.64;28.64
1.31;-0.76;20.36;3.59;17.64;27.01
-4.25;1.63;3.48;2.83;11.11;33.43
-5.88;18.51;7.51;-2.07;12.74;27.88
2.94;2.40;1.85;1.96;10.35;17.32
2.94;-1.63;-1.42;0.33;13.61;2.83
-1.09;0.76;2.61;-1.20;10.35;-22.98
-1.85;-1.63;-2.18;6.86;-8.93;-18.08
1.31;-0.00;-2.18;2.83;5.55;-14.92
-4.25;-3.27;-6.21;7.62;6.32;-22.11
3.81;-3.27;-7.08;6.86;12.74;-18.95
-2.72;1.63;-9.47;6.86;13.61;-14.92
-5.12;1.63;-8.60;3.59;5.55;-25.37
2.94;-4.79;-11.87;2.83;-3.38;-28.53
-10.78;3.27;-3.05;2.83;3.05;-9.26
14.27;-4.03;0.22;15.68;-16.23;-4.36
0.54;-1.63;0.22;-0.44;3.05;4.46
2.94;-3.27;24.39;0.33;-0.87;2.83
7.84;-1.63;7.51;4.36;-4.90;19.82
2.18;4.79;0.98;8.39;-8.17;26.24
2.94;4.03;5.88;-2.83;-11.43;26.24
3.81;1.63;7.51;-1.20;-8.17;18.19
-5.88;-4.79;6.64;-1.20;-5.77;31.04
-1.09;3.27;9.04;-1.20;-0.87;32.67
0.54;3.27;-0.54;19.71;-14.59;15.79
-22.87;-5.66;-2.18;38.22;-20.26;-1.20
1.31;1.63;-1.42;-5.23;-16.23;-11.65
-1.85;1.63;-3.05;-31.04;-12.20;-21.34
12.63;-1.63;-4.57;0.33;-5.77;-17.32
2.18;5.66;-1.42;-1.20;1.52;-21.34
0.54;-4.03;-9.47;1.96;7.08;-18.95
2.94;-3.27;-6.21;1.96;9.58;-18.95
0.54;-1.63;-10.24;1.96;10.35;-27.01
-0.22;0.76;-11.87;-0.44;11.11;-30.17
-9.15;-5.66;-9.47;-2.83;11.11;-15.68
-1.85;0.76;-1.42;-0.44;5.55;-3.59
2.94;-6.43;-1.42;2.83;5.55;10.89
2.94;0.76;1.85;-20.58;5.55;19.82
0.54;4.03;1.85;7.62;10.35;18.95
10.24;5.66;2.61;1.20;1.52;27.88
15.03;3.27;-1.42;1.20;6.32;27.01
-11.54;5.66;2.61;24.50;-5.77;22.22
0.54;-3.27;6.64;-2.07;-33.11;28.64
-8.28;0.76;4.25;-30.27;-27.55;26.24
-1.85;0.76;6.64;-4.46;-21.02;8.49
-1.09;0.76;-0.54;-3.70;-4.90;-4.36
-4.25;1.63;-0.54;1.20;5.55;-10.02
1.31;0.76;0.22;10.89;5.55;-21.34
-22.87;3.27;-11.87;5.23;13.61;-20.47
4.57;-2.40;-3.05;7.62;14.37;-10.89
2.94;-5.66;-1.42;12.41;5.55;-17.32
-1.85;1.63;-8.60;3.59;11.11;-17.32
-5.88;1.63;-3.05;0.33;16.01;-35.83
2.94;-6.43;-5.44;-1.20;13.61;-30.17
3.81;-6.43;-1.42;0.33;3.05;-18.08
1.31;-1.63;-1.42;1.96;3.05;-1.20
2.18;-2.40;-1.42;-0.44;-2.50;6.86
-0.22;0.76;0.98;2.83;-1.74;19.82
2.18;-2.40;2.61;-1.20;-4.14;23.85
7.84;1.63;2.61;-4.46;-2.50;29.40
2.94;0.76;0.98;-10.13;-3.38;24.61
-5.88;-2.40;3.48;-6.86;-8.17;21.34
-9.15;-0.00;6.64;-2.83;-12.20;29.40
-5.12;0.76;25.16;-4.46;-14.59;24.61
-5.12;-2.40;10.67;-2.07;-20.26;11.76
2.18;4.03;1.85;-0.44;-9.80;-1.20
2.94;1.63;0.98;5.99;0.65;11.76
1.31;1.63;-1.42;0.33;14.37;-22.11
1.31;-1.63;-1.42;-5.23;5.55;-18.95
2.94;-4.79;-3.05;3.59;4.68;-22.98
2.94;-4.79;-3.05;10.89;1.52;-22.98
2.18;1.63;-8.60;2.83;5.55;-23.74
-4.25;-0.00;-10.24;-2.07;3.92;-36.59
1.31;1.63;-5.44;0.33;5.55;-23.74
0.54;-0.00;-1.42;19.71;-2.50;-10.89
-1.09;-6.43;-1.42;-3.70;9.58;2.83
2.94;-4.79;-2.18;-0.44;18.40;24.61
1.31;-4.03;-1.42;-2.83;16.01;42.36
-5.88;-0.00;-3.05;-1.20;7.08;27.01
-5.88;-1.63;0.98;-6.10;-1.74;19.82
6.97;5.66;2.61;-5.23;-12.20;27.88
2.94;3.27;2.61;-2.83;-6.53;54.45
3.81;4.79;7.51;2.83;-1.74;41.49
4.57;5.66;2.61;-2.83;-16.99;31.04
-4.25;-4.03;6.64;0.33;7.95;14.92
-1.09;3.27;4.25;-0.44;7.95;22.22
1.31;-1.63;-0.54;-2.83;6.32;-23.74
2.94;-2.40;-1.42;-1.20;13.61;-21.34
-1.09;-2.40;-1.42;5.23;16.77;-22.98
0.54;1.63;-6.21;-2.07;11.11;-22.98
-1.09;-10.45;-2.18;-1.20;1.52;-22.98
-1.09;-4.79;-1.42;5.23;-11.43;-21.34
1.31;-2.40;-5.44;1.96;-19.49;-39.86
-1.85;0.76;-3.81;-2.83;-23.52;-10.02
2.94;-2.40;-2.18;0.33;-25.05;-18.08
2.94;-5.66;-3.05;6.86;-33.11;-7.62
0.54;-7.30;-3.81;0.33;-50.09;3.70
-2.72;5.66;-1.42;2.83;-20.26;17.32
-41.38;5.66;4.25;-1.20;-2.50;27.88
2.18;3.27;0.98;-2.07;11.11;28.64
2.18;6.43;6.64;-2.83;23.20;26.24
6.21;1.63;7.51;-14.92;26.46;24.61
-0.22;5.66;8.28;1.96;18.40;41.49
-5.88;3.27;9.04;2.83;11.11;32.67
2.18;-1.63;11.54;-2.83;9.58;16.55
0.54;3.27;3.48;1.20;0.65;11.76
2.94;4.79;0.98;15.68;7.08;-33.43
2.94;-3.27;-1.42;10.89;7.08;-17.32
-1.09;-0.00;-2.18;5.23;-8.17;-14.05
2.18;-0.76;-6.21;3.59;4.68;8.49
-1.09;2.40;-5.44;-4.46;4.68;-14.05
2.94;-0.00;-1.42;-3.70;-0.11;-18.08
-5.12;3.27;-3.81;-11.76;3.05;-37.46
-2.72;-0.00;-8.60;-4.46;1.52;-27.77
-9.91;-2.40;-2.18;-22.22;0.65;-18.95
-4.25;-0.00;16.33;-2.83;-4.90;-28.53
2.94;-3.27;3.48;-4.46;-6.53;2.83
2.94;-4.79;9.91;9.26;-42.80;19.82
-0.22;-7.30;7.51;10.89;-18.62;20.58
2.94;4.79;11.54;-2.07;-8.93;26.24
-1.85;1.63;10.67;5.23;4.68;24.61
-5.88;4.03;24.39;5.23;9.58;22.98
-5.12;4.79;0.98;-2.83;5.55;14.92
-1.09;2.40;5.88;-1.20;6.32;27.88
-4.25;-3.27;4.25;9.26;10.35;10.13
-5.12;-1.63;-1.42;7.62;5.55;-4.36
2.94;-5.66;13.07;11.65;7.08;-10.89
3.81;2.40;-0.54;10.89;10.35;-17.32
2.18;1.63;-4.57;3.59;26.46;-22.98
2.94;1.63;-5.44;0.33;24.07;-20.47
2.18;-2.40;-22.32;-1.20;10.35;-7.62
1.31;0.76;-5.44;-6.10;-17.86;-22.98
-5.88;-6.43;-11.87;-13.29;-30.71;-34.96
-1.09;2.40;-5.44;-9.26;-34.74;-27.77
-1.09;8.06;-5.44;-30.27;-28.31;-15.68
-1.09;0.76;-6.21;0.33;-25.05;1.20
-2.72;-0.00;-1.42;-2.07;-12.20;10.89
2.94;-1.63;-1.42;-6.10;-5.77;2.07
6.97;1.63;-0.54;-1.20;1.52;29.40
0.54;5.66;-1.42;1.96;11.11;28.64
2.94;-0.00;3.48;-6.10;14.37;30.27
1.31;6.43;4.25;2.83;19.17;27.88
4.57;1.63;6.64;-2.07;11.11;29.40
2.94;1.63;3.48;-1.20;11.98;27.88
-1.09;-2.40;7.51;-2.83;12.74;10.89
2.94;-3.27;4.25;0.33;5.55;-1.20
-1.85;4.03;0.98;5.23;3.05;-10.89
-5.12;0.76;-1.42;2.83;-4.90;-23.74
-4.25;4.03;-2.18;1.96;-3.38;-5.23
-4.25;-5.66;-2.18;0.33;0.65;-25.37
-4.25;-3.27;-7.84;1.96;3.92;-22.98
2.18;-5.66;-5.44;10.02;10.35;-21.34
2.94;-3.27;-32.78;5.99;12.74;-34.96
6.21;-4.79;-4.57;3.59;13.61;-18.08
2.18;1.63;-0.54;-2.07;22.43;-8.39
3.81;4.79;5.88;-1.20;19.17;2.07
2.94;-2.40;-1.42;-3.70;9.58;14.92
2.94;-1.63;0.98;3.59;6.32;15.79
-1.85;5.66;5.88;-3.70;-22.65;20.58
0.54;0.76;6.64;-10.13;-30.71;23.85
-1.85;-1.63;2.61;-1.20;-20.26;27.88
-5.88;-3.27;8.28;-1.20;-16.23;22.98
2.94;-4.79;10.67;-0.44;-3.38;30.27
2.18;4.03;7.51;-1.20;4.68;21.34
2.94;3.27;23.63;-3.70;-4.90;15.79
2.94;4.79;0.22;-19.82;1.52;2.83
-1.09;5.66;-27.22;-2.83;-25.92;-15.68
2.94;-3.27;-1.42;-2.83;-18.62;-10.02
-5.12;-28.97;-3.05;-5.23;-8.93;-20.47
-7.51;4.79;-8.60;-2.83;9.58;-26.14
-1.85;-6.43;-7.08;1.20;9.58;-28.53
2.94;-2.40;-7.08;3.59;6.32;-25.37
2.18;-6.43;3.48;-2.07;16.01;-35.83
2.94;-3.27;-31.25;-0.44;11.11;-25.37
0.54;3.27;-7.84;-1.20;5.55;-0.33
0.54;-1.63;-3.81;-14.16;1.52;-0.33
2.94;-1.63;-3.05;3.59;3.92;-4.36
-17.97;4.03;-1.42;1.96;6.32;18.95
3.81;-4.79;2.61;-1.20;24.83;28.64
2.94;3.27;7.51;0.33;31.25;31.04
2.94;-0.00;9.91;-1.20;30.49;30.27
-4.25;3.27;7.51;-6.10;16.01;27.88
-4.25;-2.40;6.64;6.86;7.95;32.67
-4.25;3.27;10.67;-27.01;-5.77;25.37
-8.28;0.76;4.25;-2.83;-21.02;5.23
-5.12;-4.03;3.48;2.83;-42.04;-1.96
2.18;5.66;5.88;-1.20;-46.06;-10.02
5.34;-3.27;0.22;-1.20;-37.13;-22.11
-5.12;4.03;4.25;0.33;-33.11;-22.11
0.54;-1.63;-6.21;-5.23;-15.46;-26.14
1.31;-3.27;-4.57;-5.23;-20.26;-22.98
2.94;1.63;-10.24;-2.07;20.80;-21.34
2.18;1.63;-11.87;8.39;18.40;-34.19
-34.96;-6.43;-2.18;5.23;22.43;-27.01
2.94;-3.27;-1.42;-25.37;24.07;-10.02
2.94;-2.40;-1.42;5.23;23.20;2.83
2.94;-5.66;-1.42;-1.20;16.77;8.49
28.75;-3.27;-3.81;-1.20;16.01;23.85
1.31;4.03;-2.18;-2.83;18.40;26.24
-1.09;1.63;11.54;5.23;9.58;29.40
-1.85;-1.63;3.48;-10.13;19.17;28.64
-21.24;-4.79;7.51;10.89;0.65;20.58
-1.85;1.63;6.64;1.96;-7.41;33.43
-8.28;4.03;7.51;-9.26;-12.96;24.61
7.84;3.27;7.51;-22.22;-8.17;8.49
-1.09;2.40;2.61;-13.29;-4.90;-5.99
2.94;0.76;-23.20;-6.10;5.55;13.29
2.94;4.79;11.54;-3.70;15.14;-44.65
1.31;-3.27;-1.42;10.89;5.55;-26.14
-1.09;-1.63;-2.18;3.59;-11.43;-22.98
0.54;1.63;-8.60;2.83;-37.13;-24.50
-4.25;-3.27;-11.87;-1.20;-33.11;-15.68
-1.09;-3.27;-7.08;-2.83;-27.55;-34.19
3.81;-1.63;-10.24;-4.46;-16.99;-27.77
2.18;1.63;-9.47;-4.46;-4.14;-18.08
-1.09;-7.30;-3.81;-2.07;0.65;-1.20
0.54;-4.03;-3.05;-2.83;-14.59;4.46
0.54;-3.27;-1.42;-6.10;5.55;18.19
-3.48;-3.27;-3.81;-3.70;5.55;3.70
-12.31;0.76;1.85;26.90;4.68;31.04
-7.51;-0.00;-0.54;-2.07;0.65;27.01
-2.72;4.79;4.25;1.20;26.46;28.64
-9.15;4.03;6.64;1.96;19.17;44.00
-34.09;4.79;6.64;2.83;13.61;28.64
1.31;3.27;5.88;-2.07;10.35;23.85
3.81;-0.00;5.88;8.39;10.35;3.70
6.97;4.79;-1.42;0.33;18.40;-15.68
2.94;4.79;-1.42;1.96;3.05;-21.34
2.94;-0.00;-1.42;0.33;15.14;-18.95
0.54;3.27;-4.57;6.86;-0.11;-23.74
-17.21;-2.40;-1.42;-22.22;-6.53;-23.74
-5.88;-3.27;-6.21;3.59;-9.80;-30.17
0.54;-1.63;-6.21;-0.44;-15.46;-48.68
-5.12;-6.43;-5.44;2.83;-17.86;-30.93
1.31;-1.63;-3.05;-0.44;-15.46;-14.92
-1.09;0.76;-1.42;1.96;-11.43;-1.20
-9.15;1.63;-0.54;-1.20;-8.17;3.70
15.90;-7.30;1.85;-3.70;-2.50;18.19
-2.72;4.03;4.25;-2.07;3.05;17.32
-5.88;3.27;-0.54;-3.70;18.40;29.40
-33.32;1.63;2.61;-2.07;29.73;29.40
-1.09;1.63;3.48;-1.20;30.49;28.64
0.54;0.76;2.61;-2.07;31.25;37.46
-4.25;1.63;7.51;0.33;4.68;30.27
8.60;3.27;5.01;-2.83;5.55;7.73
-4.25;5.66;14.70;-0.44;1.52;-1.96
0.54;-2.40;-1.42;9.26;-8.93;-10.89
2.94;4.03;-3.81;0.33;-20.26;-18.95
24.72;-3.27;-3.81;5.23;-31.58;-22.98
