-2.61;-8.39;-12.63;2.18;2.07;2.29
4.68;-8.39;-19.17;2.94;5.23;6.32
3.92;-7.62;-22.32;3.81;9.26;2.29
3.05;-22.11;-26.35;11.00;13.29;0.65
11.98;-19.71;-27.99;5.34;10.13;1.52
0.65;-5.23;-20.69;3.81;6.10;2.29
-4.14;-7.62;-11.87;2.18;7.62;3.16
-5.01;-6.86;-2.18;4.57;7.62;3.16
-4.14;1.20;5.01;-1.85;-2.83;3.92
-1.74;17.32;21.13;-2.72;-12.52;-4.90
13.50;22.98;22.76;-1.85;-18.08;-0.11
-0.98;-2.83;14.70;-8.28;-20.47;2.29
-34.85;6.86;9.91;-2.72;-31.80;2.29
3.92;2.83;-2.18;-4.25;-14.92;2.29
3.92;0.44;5.01;-1.09;-2.83;7.95
3.92;-3.59;1.85;-3.48;0.44;2.29
1.42;17.32;-0.54;-32.45;5.23;-4.90
11.11;-7.62;-1.42;2.18;14.16;-4.90
-0.98;4.46;-6.21;-2.72;14.92;-5.77
1.42;0.44;-6.21;2.94;12.52;-8.93
-0.98;-32.56;-11.11;-2.72;7.62;-10.56
-5.77;-1.96;-22.32;6.97;3.59;-8.17
-7.41;-3.59;-27.99;11.00;-9.26;2.29
-4.14;-10.89;-3.05;8.60;-1.96;-2.50
-2.61;-35.07;-15.90;11.00;-9.26;0.65
3.05;1.20;-13.50;5.34;2.83;1.52
0.65;4.46;-7.84;5.34;12.52;3.16
-0.98;-1.96;-2.18;3.81;6.10;7.95
-0.11;-0.44;3.48;0.54;6.86;-11.43
-0.11;-6.86;10.67;-1.85;2.83;2.29
-10.67;-12.41;11.54;-31.69;-5.23;2.29
1.42;2.07;17.10;-4.25;3.59;7.19
1.42;1.20;13.94;-5.88;4.46;3.16
7.08;7.62;11.54;0.54;-18.95;11.22
0.65;1.20;11.54;-6.75;-18.08;16.01
16.01;3.59;8.28;-1.09;-15.68;-5.77
-13.07;-3.59;5.01;23.09;-8.49;-8.93
3.05;-5.23;-2.18;-5.88;-7.62;-10.56
1.42;2.83;-9.47;-1.85;-0.44;-10.56
-0.98;-2.83;-6.21;-1.09;4.46;-13.83
1.42;-5.23;-3.05;5.34;3.59;-8.93
3.05;-2.83;-6.21;11.00;7.62;-4.90
2.29;2.07;-12.63;11.00;7.62;2.29
-3.38;-6.86;-15.90;0.54;10.13;-0.11
3.05;-6.86;-19.17;-10.78;18.19;2.29
28.10;-30.17;-9.47;11.00;22.22;5.55
-0.98;-0.44;-3.05;6.21;20.58;7.95
3.05;-1.96;-2.18;5.34;9.26;11.22
24.83;1.20;9.04;-1.85;5.23;4.68
-0.98;0.44;-3.05;-2.72;3.59;7.19
0.65;5.23;10.67;-5.88;-11.65;6.32
-1.74;4.46;11.54;-0.22;-8.49;3.92
1.42;2.83;1.85;-6.75;-10.02;5.55
0.65;3.59;9.04;-9.15;-15.68;3.16
-11.43;2.83;5.88;-4.25;-18.08;2.29
2.29;4.46;3.48;-6.75;-19.71;-23.52
2.29;5.23;0.22;-0.22;-20.47;-11.43
-1.74;-1.96;3.48;3.81;-8.49;7.95
-1.74;-4.36;-3.81;6.97;-0.44;-14.59
-0.11;1.20;-10.24;9.37;0.44;-9.80
-0.11;-1.96;-9.47;1.31;5.23;-10.56
-0.11;-3.59;-19.93;11.00;13.29;-0.11
3.05;-0.44;-12.63;11.00;19.71;1.52
1.42;-6.86;-14.27;11.00;17.32;-5.77
6.32;-8.39;-7.08;11.00;17.32;-27.55
2.29;-2.83;-11.11;3.81;14.16;2.29
3.05;-2.83;-6.21;2.94;5.23;2.29
-0.98;-0.44;-0.54;-14.81;4.46;3.16
1.42;2.07;13.07;-5.88;0.44;16.01
2.29;3.59;9.91;-9.91;-11.65;2.29
0.65;5.23;9.04;-9.91;-9.26;9.58
0.65;10.13;14.70;-0.22;-7.62;7.19
0.65;2.83;-0.54;-6.75;-5.23;13.61
-0.98;2.83;10.67;-2.72;-1.20;11.22
-2.61;6.10;8.28;-1.85;2.83;7.95
3.05;2.07;4.25;-0.22;1.20;2.29
-1.74;1.20;0.98;3.81;4.46;2.29
-0.98;-5.23;-2.18;11.00;5.23;-10.56
3.05;-5.23;-3.05;2.94;1.20;-6.53
-0.11;-4.36;-3.05;1.31;-1.96;-9.80
0.65;-4.36;-6.21;2.18;-14.92;-12.96
-11.43;-4.36;-8.60;7.84;9.26;-8.17
-0.11;-5.23;-12.63;5.34;1.20;-1.74
0.65;-3.59;-17.53;11.00;0.44;-6.53
5.44;-6.86;-25.59;6.97;-9.26;-0.11
2.29;-9.26;-31.25;-0.22;-1.96;2.29
-4.14;-7.62;-26.35;6.21;-5.23;2.29
1.42;1.20;-14.27;-2.72;-5.23;2.29
-0.98;-1.96;-12.63;-10.78;0.44;4.68
3.05;26.24;12.31;-2.72;14.16;2.29
3.05;4.46;71.87;4.57;22.22;11.22
1.42;30.27;62.29;6.21;22.98;14.37
-2.61;22.98;20.36;-0.22;13.29;4.68
20.04;-31.04;10.67;-5.12;6.10;10.35
8.71;-0.44;5.01;-7.51;-2.83;9.58
-0.98;39.86;0.22;-5.12;-11.65;2.29
2.29;-0.44;-2.18;-4.25;-20.47;-2.50
2.29;1.20;-9.47;-4.25;-21.34;-5.77
-2.61;-0.44;-5.44;-34.96;-32.56;-11.43
0.65;-1.96;-14.27;-5.88;-21.34;-15.46
-1.74;-0.44;-16.66;-5.12;-19.71;-16.23
3.05;-7.62;-22.32;0.54;-7.62;-1.74
0.65;-8.39;-25.59;11.00;6.10;-3.38
2.29;-7.62;-26.35;11.00;7.62;-1.74
-1.74;-5.99;-15.90;11.00;7.62;-1.74
2.29;2.07;-1.42;3.81;9.26;28.10
3.05;28.64;9.91;15.03;5.23;2.29
2.29;10.13;-19.93;-1.85;6.10;23.30
2.29;2.83;6.64;8.60;2.83;3.92
-1.74;0.44;9.91;-2.72;-0.44;2.29
-0.98;0.44;-1.42;24.72;2.83;2.29
3.05;-0.44;9.91;-2.72;5.23;7.95
5.44;1.20;13.07;-1.85;5.23;1.52
3.05;1.20;11.54;-1.09;5.23;13.61
3.05;1.20;-15.14;-1.09;10.89;20.04
0.65;4.46;-4.57;-1.85;21.34;-5.77
3.05;18.19;2.61;5.34;6.10;-3.38
-22.76;-28.53;0.22;7.84;-6.86;-0.11
8.71;7.62;0.22;-13.18;-5.23;-11.43
-5.01;-0.44;-2.18;11.00;-8.49;-8.17
0.65;10.89;-3.05;7.84;4.46;-12.20
-0.11;-4.36;-7.84;6.21;9.26;16.01
-1.74;-1.96;-15.90;3.81;5.23;0.65
3.05;-1.96;-11.87;2.94;6.86;-0.11
-0.11;-7.62;-16.66;-0.22;6.86;10.35
2.29;0.44;-15.90;-0.22;-21.34;-2.50
-0.11;-1.96;-7.84;-1.85;-0.44;11.22
-5.01;-5.99;-4.57;-7.51;-5.23;3.16
2.29;-5.23;3.48;-5.88;0.44;13.61
-0.98;1.20;10.67;-23.63;2.07;-8.93
1.42;1.20;13.07;-7.51;3.59;-4.90
-0.98;4.46;16.33;-2.72;5.23;2.29
1.42;-1.96;9.91;9.37;5.23;7.95
-22.76;5.23;8.28;-0.22;-3.59;13.61
3.05;6.10;9.91;-1.85;4.46;13.61
-1.74;6.10;37.24;3.81;2.83;4.68
2.29;2.83;-0.54;2.94;0.44;6.32
5.44;-0.44;-3.05;-18.84;0.44;0.65
3.05;-0.44;-6.21;5.34;-0.44;-6.53
2.29;-1.96;-4.57;-22.87;-3.59;-7.41
-0.98;-1.20;-5.44;2.94;-1.96;20.80
-1.74;-31.04;-6.21;3.81;-1.96;-8.17
20.80;-3.59;-15.90;27.88;-1.96;-6.53
3.05;-3.59;-13.50;6.97;0.44;-9.80
3.05;-1.96;-18.30;2.18;-6.86;-10.56
-0.11;-1.96;-9.47;2.18;-7.62;-11.43
-0.98;-2.83;-3.81;-1.85;26.24;-11.43
-0.11;-7.62;-0.54;-1.85;1.20;-0.87
3.05;0.44;8.28;11.00;-0.44;1.52
3.05;6.10;13.07;-6.75;-5.23;6.32
2.29;14.16;6.64;-1.09;-5.23;6.32
20.80;6.10;-9.47;-4.25;-0.44;12.74
1.42;-0.44;6.64;-1.09;5.23;18.40
1.42;4.46;10.67;-1.85;-0.44;15.25
-5.01;0.44;9.04;-5.12;5.23;20.80
3.05;0.44;8.28;2.94;5.23;13.61
2.29;-2.83;2.61;2.18;5.23;2.29
2.29;2.07;-0.54;0.54;5.23;-0.11
-0.98;-5.23;-2.18;2.18;5.23;-9.80
3.05;1.20;-6.21;-9.15;2.83;-8.17
0.65;2.07;-10.24;-0.22;-3.59;-12.96
-1.74;-3.59;-13.50;7.84;7.62;15.25
-0.98;-5.23;-16.66;8.60;15.68;2.29
1.42;1.20;-15.90;11.87;15.68;-0.11
-2.61;-5.99;-17.53;9.37;15.68;-0.11
0.65;-8.39;-4.57;3.81;8.49;3.16
-5.01;2.07;-7.84;-19.60;6.10;-0.11
-0.11;1.20;1.85;-6.75;-2.83;2.29
-1.74;-1.96;7.51;-10.78;-10.02;2.29
-13.83;4.46;10.67;-9.15;-22.98;1.52
2.29;5.23;3.48;-14.81;-34.19;2.29
3.05;7.62;1.85;-13.18;-38.22;2.29
3.92;5.23;-7.08;-9.15;-31.04;-3.38
3.92;0.44;-10.24;-7.51;-24.50;24.07
4.68;6.10;-5.44;-9.15;-14.05;-1.74
3.05;-3.59;4.25;-2.72;9.26;2.29
-4.14;-6.86;71.11;8.60;31.04;-5.77
11.98;0.44;24.39;2.18;25.37;7.95
0.65;-6.86;-3.05;6.21;18.95;-10.56
-4.14;-2.83;-25.59;6.97;13.29;-9.80
3.05;-9.26;-7.08;20.69;1.20;-8.17
-0.98;3.59;-13.50;6.97;-11.65;-0.11
3.05;-34.19;-15.14;11.00;-3.59;6.32
1.42;-3.59;-22.32;6.21;-8.49;3.16
3.05;5.23;-28.75;9.37;-1.96;2.29
3.05;-4.36;-12.63;8.60;-26.14;2.29
7.95;1.20;-4.57;3.81;4.46;2.29
5.44;14.16;-2.18;-35.72;7.62;10.35
2.29;-0.44;2.61;-3.48;16.55;2.29
-4.14;3.59;9.04;-2.72;10.13;2.29
-5.01;1.20;12.31;-24.39;5.23;-1.74
-5.01;5.23;5.88;-26.90;-5.99;3.16
-4.14;8.49;9.91;-4.25;-10.02;2.29
0.65;-0.44;5.88;-1.85;-31.04;14.37
2.29;0.44;5.88;-9.15;-20.47;4.68
3.05;0.44;1.85;-13.18;-18.08;-0.11
0.65;2.83;-2.18;-5.88;-14.92;-5.77
0.65;-0.44;-5.44;-2.72;-7.62;-11.43
1.42;-5.23;-4.57;-2.72;-0.44;-8.17
3.05;-7.62;-3.05;-1.09;5.23;-11.43
0.65;-2.83;-1.42;5.34;12.52;-9.80
0.65;27.01;-2.18;9.37;14.16;-6.53
-0.98;3.59;-24.72;-9.91;14.92;-2.50
2.29;-1.96;-21.56;15.03;12.52;1.52
-0.98;7.62;-19.93;8.60;10.89;3.16
5.44;-7.62;-17.53;5.34;-1.96;2.29
6.32;-3.59;-15.14;0.54;5.23;28.10
-9.04;-1.96;5.88;6.21;-2.83;7.19
3.92;-1.96;5.01;-1.09;-0.44;1.52
3.05;5.23;9.04;-6.75;2.83;14.37
3.05;2.83;5.88;-1.85;1.20;28.10
2.29;-2.83;10.67;-11.54;-3.59;6.32
1.42;2.83;10.67;-1.85;-1.96;7.19
2.29;4.46;9.91;0.54;-1.96;14.37
3.05;-1.96;11.54;-25.26;4.46;15.25
1.42;-7.62;10.67;2.94;-1.96;6.32
-1.74;-16.44;3.48;-0.22;-1.96;0.65
0.65;0.44;5.01;-2.72;-2.83;-8.17
-5.77;-1.96;-2.18;-5.12;2.83;-15.46
-0.98;2.83;-1.42;1.31;2.07;-23.52
3.05;2.83;-4.57;5.34;-1.20;-10.56
1.42;-3.59;-14.27;0.54;-10.02;-5.77
-0.98;-1.96;-19.93;6.97;-1.96;3.16
0.65;-7.62;-27.22;13.39;-4.46;-1.74
2.29;-5.23;-26.35;11.00;1.20;0.65
-2.61;-9.26;-11.11;6.21;3.59;0.65
-0.98;-1.96;-6.21;2.18;2.83;2.29
-0.98;-1.96;-2.18;2.18;-0.44;9.58
0.65;0.44;5.88;-3.48;6.10;6.32
-1.74;0.44;22.00;-5.88;1.20;3.16
-4.14;-1.96;7.51;-10.78;4.46;9.58
1.42;0.44;9.91;-6.75;3.59;7.19
2.29;-2.83;14.70;-6.75;3.59;3.16
3.05;1.20;29.19;-9.15;-1.20;13.61
0.65;5.23;14.70;-4.25;-1.96;-14.59
3.05;6.10;22.76;-2.72;2.83;-9.80
2.29;3.59;8.28;-3.48;4.46;-1.74
0.65;2.83;-1.42;-1.85;1.20;-2.50
3.05;-10.02;-2.18;-1.09;4.46;-12.20
1.42;-5.23;-10.24;3.81;8.49;-11.43
-1.74;5.23;-6.21;-2.72;5.23;-8.17
-0.98;-1.96;-9.47;6.97;6.10;-4.90
-0.98;-5.99;-12.63;6.97;1.20;-7.41
-0.11;-1.96;-12.63;11.00;-8.49;-7.41
2.29;-1.96;-14.27;6.21;-29.40;-10.56
-1.74;-2.83;-9.47;0.54;-10.02;-10.56
-0.98;-1.96;-2.18;23.96;-11.65;-10.56
-1.74;-3.59;-1.42;-1.85;5.23;-4.90
-0.98;5.23;1.85;-22.87;-3.59;-0.87
-4.14;-3.59;9.91;-6.75;6.10;2.29
3.05;-1.96;6.64;-5.88;14.16;-17.86
-5.77;0.44;5.01;-6.75;14.16;13.61
-0.98;-0.44;7.51;-5.88;5.23;14.37
0.65;2.07;5.01;-6.75;-6.86;22.43
1.42;2.07;6.64;-7.51;-17.32;16.77
-12.20;2.83;6.64;-2.72;-4.46;9.58
-1.74;-2.83;-0.54;3.81;-12.52;1.52
-4.14;-5.23;0.22;2.18;-15.68;0.65
-0.98;-1.96;-2.18;2.94;-14.92;-12.20
2.29;5.23;-4.57;-1.09;-6.86;-8.93
7.08;-0.44;-2.18;-18.84;5.23;-3.38
2.29;0.44;-6.21;6.97;16.55;-10.56
3.05;-3.59;-6.21;0.54;28.64;-0.11
3.05;-5.23;-2.18;5.34;16.55;-8.93
-0.11;-10.02;-2.18;9.37;30.27;-9.80
-0.11;0.44;-2.18;2.18;31.04;2.29
3.05;-0.44;-0.54;25.48;34.30;3.92
1.42;0.44;5.88;1.31;8.49;7.19
1.42;5.23;5.88;-1.85;-8.49;10.35
3.05;-3.59;-0.54;-5.88;-18.95;6.32
4.68;-6.86;-3.81;-1.85;-20.47;2.29
-2.61;3.59;-23.96;-4.25;-21.34;2.29
-0.11;-1.96;-15.90;3.81;-24.50;-22.65
2.29;5.23;-11.11;-0.22;-20.47;7.19
-0.98;2.07;-13.50;-3.48;-20.47;7.19
-15.46;-0.44;-2.18;-1.85;-11.65;-1.74
0.65;5.23;24.39;-2.72;-12.52;-8.17
3.05;-4.36;61.42;-1.09;-3.59;-11.43
-2.61;-6.86;11.54;2.94;3.59;-16.23
2.29;-7.62;-6.21;2.94;5.23;-8.93
1.42;-1.96;-12.63;2.18;-10.89;-4.90
-1.74;-0.44;-20.69;-2.72;6.10;-5.77
2.29;-6.86;-9.47;-1.09;9.26;25.70
-0.98;-5.23;-3.05;0.54;14.16;-2.50
2.29;-5.99;-10.24;0.54;5.23;-14.59
2.29;14.16;-5.44;5.34;-1.96;-8.17
2.29;-0.44;-1.42;6.97;3.59;2.29
-1.74;3.59;-2.18;0.54;-1.96;-2.50
0.65;4.46;-0.54;-0.22;0.44;10.35
-0.98;2.83;-0.54;0.54;0.44;9.58
2.29;31.04;1.85;4.57;2.83;13.61
2.29;-5.23;1.85;-2.72;6.10;11.98
1.42;2.07;-1.42;-3.48;9.26;11.22
2.29;-7.62;-1.42;-1.85;9.26;18.40
3.05;5.23;23.63;-2.72;5.23;17.64
3.05;0.44;5.88;-0.22;5.23;6.32
3.05;4.46;16.33;-1.09;0.44;-0.11
0.65;0.44;0.22;6.21;-5.99;-6.53
0.65;-2.83;-3.81;0.54;5.23;-10.56
0.65;-2.83;-7.84;2.94;-1.96;-11.43
0.65;3.59;-2.18;26.35;18.19;-14.59
-1.74;-5.23;-19.17;-0.22;-1.96;-10.56
-0.98;-2.83;-7.84;5.34;5.23;-2.50
3.05;-1.96;-7.84;6.21;1.20;-15.46
1.42;0.44;8.28;8.60;2.83;-11.43
3.05;-7.62;-2.18;-0.22;5.23;-14.59
2.29;-6.86;-4.57;11.00;14.16;2.29
-0.98;-7.62;-29.62;3.81;20.58;4.68
5.44;-7.62;-3.05;2.18;17.32;3.16
2.29;-7.62;-7.84;-3.48;6.86;12.74
-0.11;-1.96;-3.05;-3.48;2.83;9.58
-0.11;5.23;3.48;-1.85;5.23;7.95
5.44;31.80;19.60;-1.85;-10.02;6.32
3.05;5.23;17.97;-6.75;-13.29;14.37
-1.74;6.10;1.85;-4.25;-6.86;11.22
3.05;-0.44;0.22;-1.09;-20.47;3.92
3.05;0.44;-0.54;-0.22;-16.55;-1.74
3.92;1.20;0.22;-5.12;-13.29;-6.53
2.29;15.68;-1.42;0.54;2.83;-3.38
0.65;5.23;-2.18;15.03;4.46;-6.53
1.42;-3.59;-2.18;-4.25;5.23;-10.56
-1.74;-3.59;-6.21;-5.88;5.23;-11.43
3.05;-4.36;-2.18;23.09;9.26;-9.80
-0.98;-5.23;-11.11;-1.85;15.68;-16.23
-5.77;-35.07;-9.47;-13.94;19.71;-13.83
16.01;-6.86;-3.81;0.54;17.32;-8.17
0.65;0.44;-2.18;0.54;15.68;-0.11
1.42;-1.96;-2.18;6.21;5.23;3.16
2.29;2.83;-2.18;-0.22;-5.23;3.16
-2.61;6.10;6.64;-14.81;-18.95;3.16
3.05;-18.95;3.48;-2.72;-34.19;14.37
3.05;31.04;2.61;-5.88;-35.83;14.37
15.14;4.46;-3.05;-2.72;-26.14;14.37
-0.98;-31.04;0.98;-19.60;-13.29;19.28
-0.11;0.44;1.85;-6.75;4.46;11.98
-5.01;-0.44;1.85;-2.72;18.19;3.92
0.65;5.23;5.88;-1.09;18.19;2.29
0.65;2.07;8.28;2.18;19.71;-4.90
-0.98;-0.44;-2.18;2.94;31.04;-19.49
-1.74;29.40;0.22;-13.94;-3.59;-17.86
1.42;-2.83;5.01;2.18;-8.49;-15.46
-2.61;-8.39;-6.21;3.81;-14.05;-18.62
1.42;-3.59;-6.21;-4.25;-14.92;-14.59
1.42;2.83;-6.21;6.21;-13.29;-23.52
1.42;-0.44;-7.84;6.21;-5.99;-19.49
1.42;-1.96;-3.05;0.54;-1.96;-19.49
-1.74;-4.36;-3.81;2.18;9.26;-8.93
-0.98;-5.23;-2.18;-1.09;-2.83;7.19
2.29;4.46;-1.42;-1.85;1.20;16.01
3.05;4.46;2.61;2.94;9.26;16.77
-0.98;-3.59;2.61;-1.85;18.95;16.01
0.65;0.44;2.61;1.31;27.01;28.10
-2.61;2.83;9.04;-1.85;26.24;26.46
3.05;4.46;6.64;-1.85;19.71;23.30
3.92;10.89;3.48;-1.09;10.89;16.01
1.42;5.23;6.64;-1.09;5.23;7.95
3.05;0.44;-0.54;0.54;2.07;-0.11
3.05;2.83;5.01;-0.22;-6.86;-8.93
0.65;-10.02;0.22;6.21;-8.49;-11.43
-5.01;-5.23;-2.18;6.21;-11.65;-41.16
2.29;17.32;-3.05;-5.88;-18.08;-22.65
2.29;0.44;-7.08;-26.03;-18.08;-21.89
-2.61;0.44;-19.93;6.21;-11.65;-13.83
6.32;-1.20;-23.96;2.94;-20.47;-22.65
3.05;-0.44;-27.22;-5.88;-1.96;-18.62
-1.74;-4.36;-23.96;-1.09;-1.96;-10.56
-4.14;-0.44;-2.18;-1.85;-2.83;-5.77
-0.98;5.23;49.33;0.54;-5.23;3.16
-0.11;1.20;23.63;-2.72;5.23;2.29
0.65;1.20;5.01;-2.72;6.10;20.04
8.71;-5.23;-2.18;-3.48;0.44;16.01
-2.61;2.83;-14.27;-5.12;-5.99;14.37
1.42;4.46;-1.42;-1.85;-34.19;10.35
7.95;-0.44;-1.42;-1.85;-9.26;20.04
3.05;1.20;-2.18;3.81;-2.83;11.22
-2.61;4.46;-2.18;-1.85;2.07;17.64
3.05;-5.23;0.98;0.54;3.59;1.52
3.05;-0.44;-2.18;-1.85;5.23;-7.41
-0.98;31.04;-4.57;-34.96;4.46;-11.43
1.42;-1.96;-6.21;2.94;3.59;-10.56
3.05;2.07;-5.44;-1.09;5.23;-9.80
-2.61;4.46;-12.63;0.54;5.23;-12.20
-0.98;-3.59;-3.81;2.18;10.13;-8.17
2.29;-6.86;-9.47;2.18;8.49;-15.46
-0.98;-5.23;-4.57;5.34;4.46;-12.96
1.42;-24.50;-2.18;5.34;3.59;-7.41
-0.98;1.20;-2.18;5.34;-22.98;-1.74
-1.74;-2.83;-2.18;0.54;-1.96;7.19
-5.77;3.59;0.98;-2.72;-7.62;12.74
20.04;5.23;0.22;-1.09;-3.59;12.74
-2.61;5.23;3.48;0.54;-5.99;11.22
3.05;2.83;2.61;2.18;-1.96;20.80
-0.98;-3.59;0.22;3.81;4.46;12.74
2.29;-0.44;3.48;-5.12;7.62;16.77
0.65;3.59;-0.54;-9.15;16.55;6.32
-5.77;0.44;3.48;-29.29;13.29;7.95
-11.43;-1.96;-1.42;-2.72;9.26;2.29
3.05;5.23;-1.42;-5.88;3.59;-10.56
2.29;4.46;-3.81;-2.72;-0.44;-9.80
2.29;-5.99;-2.18;19.93;-7.62;-12.20
1.42;-21.34;-7.08;-5.12;-19.71;-16.23
-0.11;-5.99;-5.44;9.37;-20.47;-9.80
1.42;-2.83;-4.57;6.21;-14.92;-9.80
18.40;-3.59;-6.21;2.18;-14.92;-20.26
3.92;-6.86;-4.57;7.84;-9.26;-25.05
-2.61;-6.86;-3.81;7.84;-3.59;-10.56
-3.38;1.20;-2.18;2.18;2.83;-0.11
4.68;0.44;0.22;-1.85;9.26;2.29
-0.11;1.20;0.98;-0.22;-1.96;7.95
-0.11;-5.23;13.07;2.18;5.23;38.55
-7.41;4.46;3.48;-1.85;3.59;14.37
-6.64;3.59;8.28;-0.22;4.46;4.68
-0.98;2.83;-3.81;-1.85;4.46;10.35
-5.01;-1.20;5.01;-1.09;0.44;14.37
-0.11;-0.44;5.88;-34.96;4.46;13.61
-4.14;-1.96;-1.42;-10.78;5.23;2.29
-5.77;-0.44;-2.18;-28.42;2.07;-3.38
0.65;2.83;-2.18;19.93;5.23;-8.93
3.92;-2.83;-3.05;-2.72;5.23;-10.56
3.05;0.44;-2.18;0.54;-0.44;-10.56
2.29;-3.59;-7.08;-14.81;1.20;-5.77
-2.61;-6.86;-6.21;2.94;4.46;-12.96
-0.98;-31.04;-3.81;2.18;5.23;-4.90
-4.14;-1.96;-15.90;6.97;9.26;-38.01
-5.01;-1.96;-7.84;6.97;13.29;-22.65
-5.01;-3.59;-2.18;9.37;14.16;-10.56
0.65;1.20;-10.24;6.21;5.23;-6.53
1.42;2.83;-2.18;3.81;1.20;2.29
-2.61;23.74;-2.18;15.03;8.49;11.22
-5.01;-0.44;0.98;-2.72;-0.44;19.28
3.05;-1.96;1.85;-3.48;9.26;12.74
0.65;-2.83;2.61;-9.91;-2.83;9.58
2.29;-10.02;3.48;-6.75;-13.29;3.92
-4.14;5.23;18.73;-13.18;-20.47;11.22
1.42;2.07;-2.18;-10.78;-25.37;3.16
1.42;0.44;1.85;-9.91;-22.98;-6.53
-5.01;-3.59;0.22;-13.94;-26.14;-8.17
-5.01;-1.96;-9.47;-9.91;-19.71;-11.43
1.42;-4.36;-19.17;-1.09;-11.65;-17.86
1.42;-7.62;-11.11;-0.22;5.23;-14.59
-11.43;-7.62;-17.53;-3.48;8.49;-1.74
1.42;-7.62;-13.50;3.81;15.68;-6.53
-0.98;29.40;-3.81;11.00;18.95;-7.41
2.29;-5.23;-2.18;7.84;17.32;-11.43
-0.98;4.46;1.85;-1.09;18.19;-10.56
0.65;41.49;9.04;6.21;18.95;-1.74
-11.43;5.23;-0.54;21.45;35.83;2.29
-2.61;-2.83;0.22;-1.09;12.52;4.68
0.65;-2.83;-2.18;3.81;4.46;10.35
3.05;-5.23;-0.54;2.18;3.59;12.74
3.05;-1.96;5.88;5.34;-1.96;18.40
3.05;-6.86;5.01;5.34;-8.49;19.28
-2.61;-3.59;3.48;5.34;-8.49;19.28
2.29;-1.96;5.01;-1.85;-5.23;20.04
2.29;-1.96;8.28;-1.85;0.44;19.28
0.65;26.24;6.64;-6.75;13.29;5.55
-8.17;-2.83;32.45;-6.75;21.34;1.52
-1.74;4.46;5.88;-1.09;15.68;-6.53
-5.77;-0.44;-2.18;-2.72;10.13;-12.96
-4.14;1.20;-3.81;-3.48;5.23;-34.74
-7.41;-1.96;-9.47;-1.09;-18.08;-16.23
-1.74;-9.26;-9.47;3.81;-15.68;-17.86
2.29;17.32;-11.11;-3.48;-33.43;-14.59
1.42;-1.96;-9.47;0.54;-43.89;-27.55
3.05;-3.59;-9.47;0.54;-34.19;-21.02
2.29;-1.96;-2.18;1.31;-23.74;3.16
0.65;-5.23;-9.47;5.34;-10.02;-6.53
1.42;-27.77;-2.18;-22.87;4.46;2.29
3.05;0.44;-1.42;-1.85;8.49;5.55
1.42;-5.99;-2.18;0.54;17.32;10.35
3.92;13.29;-10.24;-26.90;18.95;11.22
3.05;-1.96;-11.87;11.00;10.13;20.80
3.05;36.70;-15.90;-14.81;18.19;16.01
16.01;4.46;-11.11;12.63;10.89;28.10
-0.11;2.83;24.39;2.94;19.71;27.33
3.05;5.23;63.82;0.54;10.89;16.77
-0.11;0.44;44.54;-5.12;6.86;2.29
-5.77;-7.62;1.85;-1.85;5.23;-13.83
-39.64;-2.83;-3.81;-4.25;1.20;-10.56
-5.01;6.10;-2.18;-14.81;-3.59;-12.96
3.05;-2.83;-11.11;1.31;-4.46;-10.56
-0.98;-10.02;-11.11;-1.85;-7.62;-21.89
-2.61;-27.01;-12.63;2.18;2.83;-17.86
2.29;-2.83;-17.53;7.84;1.20;-10.56
-1.74;-3.59;-10.24;11.00;5.23;-12.96
-4.14;-3.59;-3.05;4.57;4.46;-10.56
-0.11;0.44;-9.47;1.31;9.26;10.35
-0.98;1.20;-27.99;-0.22;5.23;4.68
1.42;0.44;-2.18;0.54;2.83;11.22
3.05;0.44;1.85;6.21;-10.02;7.95
3.05;-0.44;1.85;2.18;-22.98;12.74
0.65;0.44;3.48;-2.72;-21.34;14.37
-4.14;-1.96;1.85;-2.72;-12.52;13.61
-5.77;2.07;6.64;-4.25;-8.49;16.01
-0.98;5.23;0.22;-3.48;3.59;11.22
2.29;3.59;2.61;-5.88;-18.08;11.22
1.42;1.20;0.22;-1.09;14.16;-0.11
-2.61;3.59;-1.42;6.21;4.46;-4.90
-1.74;4.46;-2.18;0.54;5.23;-3.38
-0.98;7.62;-3.05;-0.22;9.26;-12.96
-0.98;-5.23;-3.05;-1.09;10.89;-12.96
-0.11;0.44;-2.18;2.18;7.62;-6.53
2.29;-3.59;-7.84;5.34;5.23;-7.41
3.05;-7.62;-6.21;0.54;5.23;-15.46
0.65;-18.08;-3.05;-13.94;5.23;-14.59
-2.61;-11.65;-6.21;6.21;5.23;-4.90
3.05;-0.44;-2.18;0.54;2.07;2.29
-0.98;-1.96;-2.18;-1.85;-1.96;4.68
0.65;1.20;-2.18;-1.09;-10.02;7.95
-0.98;2.83;-2.18;-1.09;-14.92;14.37
-0.98;-6.86;3.48;-0.22;-14.92;9.58
3.05;5.23;3.48;1.31;-12.52;16.77
-1.74;4.46;3.48;18.30;-14.92;12.74
-1.74;-3.59;1.85;13.39;2.07;20.04
2.29;26.24;-0.54;-11.54;5.23;13.61
20.04;-16.44;0.98;-9.15;12.52;4.68
3.05;4.46;2.61;-1.85;14.16;2.29
2.29;-0.44;0.98;-7.51;2.83;-2.50
3.05;-0.44;-7.84;2.18;12.52;-10.56
1.42;31.80;-1.42;6.97;6.10;-14.59
-0.98;3.59;-4.57;0.54;10.89;-21.02
-1.74;-0.44;-3.05;6.97;18.19;-22.65
1.42;-2.83;-0.54;0.54;6.10;-18.62
-2.61;-5.99;1.85;-1.09;5.23;-32.34
-2.61;-3.59;-9.47;0.54;-6.86;-22.65
-6.64;4.46;-14.27;-14.81;-15.68;-10.56
0.65;3.59;-19.17;-2.72;-23.74;2.29
-4.14;-3.59;-3.81;-1.85;-21.34;13.61
-4.14;-10.02;-2.18;-9.15;-22.11;15.25
-1.74;-1.96;5.88;-2.72;-18.95;18.40
-1.74;1.20;0.22;-0.22;-14.05;17.64
-26.79;-16.44;7.51;2.18;-7.62;20.04
-5.77;7.62;3.48;-25.26;0.44;11.22
-1.74;-5.99;-0.54;2.18;5.23;17.64
-1.74;2.83;2.61;-1.85;7.62;12.74
-1.74;4.46;8.28;-1.09;5.23;3.16
3.05;-1.96;5.01;3.81;3.59;4.68
-17.10;-2.83;-3.05;6.21;2.83;-8.93
-5.01;-9.26;-3.81;2.94;5.23;-12.20
-0.98;-8.39;-2.18;-3.48;1.20;-8.93
0.65;-1.96;-9.47;-26.90;5.23;-10.56
3.05;-5.23;-4.57;2.94;6.10;-4.90
2.29;-5.99;-6.21;3.81;14.92;0.65
0.65;5.23;-2.18;-1.09;7.62;-11.43
3.92;22.22;-2.18;-1.85;12.52;-9.80
3.05;5.23;-1.42;-1.09;14.16;-2.50
-0.98;2.83;11.54;2.18;17.32;6.32
3.05;9.26;3.48;3.81;13.29;14.37
-0.98;1.20;2.61;-7.51;5.23;7.95
17.53;1.20;3.48;-2.72;5.23;10.35
1.42;2.83;-10.24;27.88;2.07;10.35
3.05;-3.59;-6.21;6.97;-1.96;10.35
1.42;-1.20;-16.66;2.94;0.44;2.29
1.42;-1.96;-15.90;-1.85;-6.86;2.29
1.42;-5.23;-11.11;-1.85;-9.26;7.95
-0.98;-5.23;47.70;-2.72;-10.02;-1.74
3.92;-1.20;38.88;-1.09;-12.52;-2.50
2.29;-5.23;5.88;-10.78;-12.52;-12.20
-5.77;-6.86;-2.18;-33.32;-18.08;-12.96
2.29;-3.59;-13.50;-1.85;-19.71;-16.23
-2.61;-0.44;-11.11;-1.85;-0.44;-36.37
-4.14;2.83;-12.63;0.54;3.59;-6.53
1.42;-7.62;-14.27;11.00;6.86;-1.74
3.05;1.20;-10.24;10.24;10.13;-7.41
2.29;-2.83;-7.84;2.94;8.49;-8.93
2.29;-6.86;-7.08;6.21;6.86;-2.50
3.05;0.44;-2.18;6.97;7.62;2.29
0.65;-3.59;-3.05;-0.22;31.04;4.68
-2.61;0.44;-1.42;-1.09;4.46;9.58
-0.98;1.20;1.85;-0.22;5.23;16.77
3.05;-0.44;-0.54;-1.85;3.59;13.61
-0.98;2.83;-1.42;3.81;2.83;7.19
-0.98;6.10;0.98;-2.72;3.59;11.22
2.29;-3.59;0.22;-1.09;2.07;15.25
3.05;2.83;0.98;-1.09;17.32;13.61
3.05;2.83;5.88;-1.85;5.23;2.29
2.29;-7.62;2.61;-9.15;5.23;-1.74
-0.98;2.07;-2.18;-1.85;-0.44;-21.02
0.65;-2.83;-2.18;1.31;-5.23;-10.56
-5.77;2.07;-7.84;-1.85;-9.26;-10.56
-4.14;2.83;-6.21;0.54;5.23;-12.20
-0.98;-1.96;-2.18;-1.85;-10.02;-10.56
-4.14;-0.44;-9.47;-1.85;-7.62;-12.96
3.05;10.89;-11.11;2.18;-5.23;-19.49
3.05;-5.99;-4.57;-1.09;-1.96;-10.56
-0.11;-2.83;-9.47;-0.22;4.46;-11.43
-4.14;-4.36;-2.18;2.18;-1.96;1.52
-1.74;-0.44;1.85;0.54;5.23;2.29
-9.04;-0.44;-1.42;0.54;5.23;1.52
3.05;-3.59;-1.42;2.94;1.20;6.32
-1.74;-2.83;-24.72;0.54;2.07;28.10
2.29;2.83;2.61;-4.25;0.44;16.77
20.04;-3.59;0.22;2.18;-0.44;11.22
1.42;1.20;1.85;-2.72;6.86;15.25
-0.11;2.83;2.61;-4.25;10.13;15.25
-5.01;2.83;2.61;0.54;13.29;4.68
2.29;2.83;1.85;2.94;16.55;1.52
0.65;-1.96;1.85;2.18;14.16;2.29
-20.26;1.20;1.85;11.00;13.29;11.98
-0.98;2.83;-1.42;6.21;8.49;-10.56
-5.77;-0.44;-11.11;6.21;-1.20;-7.41
1.42;-2.83;-3.05;10.24;-9.26;-11.43
-1.74;2.07;-3.81;8.60;-14.92;-12.96
-2.61;-0.44;-4.57;2.94;-15.68;-18.62
-1.74;0.44;-14.27;1.31;-11.65;12.74
3.05;1.20;-4.57;2.18;-5.23;-11.43
2.29;-2.83;-2.18;5.34;-2.83;-6.53
2.29;2.07;-2.18;6.97;-3.59;9.58
3.05;5.23;-1.42;2.18;-5.23;13.61
-0.98;2.83;0.22;6.97;-2.83;10.35
1.42;2.83;2.61;2.18;1.20;12.74
-1.74;1.20;3.48;-9.91;-5.23;15.25
3.05;-1.96;6.64;-15.57;22.22;15.25
-5.77;0.44;2.61;-16.33;12.52;16.77
11.98;5.23;1.85;-5.88;17.32;14.37
-24.28;5.23;0.98;-3.48;3.59;7.19
-1.74;-0.44;3.48;-0.22;-5.99;-3.38
-5.77;3.59;0.22;-1.09;-18.08;-10.56
0.65;-1.96;0.22;6.97;-13.29;-17.86
2.29;-3.59;-3.05;3.81;5.23;-17.86
32.89;0.44;-2.18;6.21;3.59;-10.56
3.05;0.44;-3.81;1.31;5.23;-8.17
2.29;0.44;-3.05;6.97;9.26;-10.56
3.92;-7.62;-2.18;10.24;8.49;-21.89
2.29;-2.83;-1.42;5.34;14.16;-5.77
1.42;-3.59;-2.18;11.00;31.04;-1.74
2.29;-5.23;-26.35;6.21;38.33;11.98
-0.98;4.46;-7.84;-11.54;22.22;10.35
-1.74;1.20;-14.27;-1.85;-8.49;23.30
3.05;-4.36;-14.27;1.31;-40.62;14.37
1.42;-1.96;10.67;-7.51;-46.28;12.74
-1.74;-5.23;-3.05;-13.94;-41.49;15.25
3.92;-3.59;1.85;-12.31;-28.53;3.92
0.65;-5.23;3.48;-13.18;-5.99;4.68
-1.74;6.10;12.31;-7.51;-11.65;7.95
3.05;33.43;21.13;-1.85;3.59;-0.11
-2.61;10.13;8.28;-0.22;3.59;-4.90
-0.98;1.20;-3.05;-1.09;5.23;16.77
-21.13;-5.23;-15.90;-1.85;7.62;-11.43
-5.77;4.46;-27.22;5.34;14.92;-9.80
-0.98;-6.86;-25.59;-2.72;22.22;-7.41
1.42;-5.23;-19.17;5.34;16.55;-8.17
3.05;-0.44;5.01;11.00;9.26;-4.90
3.05;-2.83;41.27;11.87;9.26;-5.77
2.29;-3.59;13.07;6.97;5.23;-8.17
-36.37;-10.02;-10.24;-0.22;-2.83;-16.23
-2.61;-7.62;-4.57;6.97;2.83;3.92
0.65;-8.39;-6.21;-2.72;5.23;4.68
-0.98;-13.29;-2.18;11.00;5.23;4.68
-5.77;5.23;-2.18;-1.85;2.83;12.74
-0.98;4.46;-20.69;-4.25;-3.59;15.25
0.65;5.23;-7.84;-2.72;-3.59;12.74
0.65;-7.62;3.48;-2.72;-3.59;14.37
4.68;-14.92;3.48;-1.09;-11.65;20.04
3.05;5.23;3.48;0.54;-8.49;-4.90
-1.74;2.07;3.48;-2.72;-6.86;0.65
1.42;4.46;2.61;2.94;-6.86;-4.90
-4.14;20.58;-0.54;-0.22;2.07;-8.17
-0.98;4.46;0.22;5.34;3.59;-10.56
1.42;1.20;-4.57;6.21;5.23;7.95
-0.98;-6.86;-4.57;-1.85;6.10;-10.56
28.10;-7.62;-11.11;6.97;3.59;-8.93
3.05;-3.59;-7.08;6.21;5.23;-9.80
3.92;-5.99;-29.62;-1.85;5.23;-15.46
-5.77;1.20;-7.08;3.81;8.49;-12.20
-3.38;5.23;-4.57;3.81;8.49;-8.17
-0.11;-18.08;-4.57;2.18;8.49;0.65
3.05;-0.44;-1.42;-0.22;5.23;7.19
-0.11;0.44;2.61;3.81;5.23;13.61
3.92;1.20;5.88;0.54;6.86;15.25
1.42;-0.44;2.61;-1.85;8.49;19.28
3.05;5.23;0.98;-1.85;5.23;12.74
4.68;1.20;0.22;-7.51;2.83;11.22
3.92;5.23;1.85;-5.88;-7.62;17.64
7.08;5.23;9.04;-5.12;-12.52;46.61
-4.14;-2.83;0.22;-4.25;-29.40;2.29
-5.77;-4.36;-0.54;-0.22;-19.71;-6.53
-0.98;-1.20;-1.42;6.97;-25.37;-8.93
-2.61;1.20;-6.21;1.31;-26.14;-13.83
2.29;-5.23;-3.81;6.97;-20.47;-18.62
3.05;-2.83;-28.75;0.54;-10.02;-10.56
-1.74;-6.86;-3.81;1.31;5.23;-15.46
-5.01;-3.59;-7.08;3.81;13.29;-17.86
-7.41;0.44;-5.44;5.34;16.55;-19.49
-2.61;4.46;-6.21;-0.22;15.68;-21.02
-0.11;1.20;-3.81;8.60;12.52;-11.43
3.05;-6.86;-2.18;3.81;5.23;-3.38
-1.74;1.20;-4.57;-1.09;-1.96;-2.50
-1.74;-1.96;-1.42;-1.09;-4.46;11.98
-5.01;-1.96;0.22;-1.85;-5.23;11.22
-4.14;-7.62;6.64;11.00;-6.86;14.37
0.65;-7.62;1.85;-35.72;4.46;19.28
0.65;1.20;6.64;-31.69;4.46;20.80
3.05;3.59;8.28;-4.25;9.26;21.67
0.65;-0.44;3.48;0.54;9.26;20.80
1.42;3.59;8.28;-0.22;17.32;40.18
3.05;3.59;1.85;-3.48;12.52;2.29
-22.76;3.59;5.88;0.54;18.19;-24.28
4.68;-0.44;-2.18;-1.09;14.16;-8.17
2.29;2.83;-6.21;3.81;14.16;-6.53
2.29;0.44;-3.05;2.18;-5.23;-10.56
-1.74;-3.59;-5.44;-1.85;-8.49;-10.56
-0.98;3.59;-18.30;-1.85;-19.71;-16.23
-1.74;0.44;-7.08;-4.25;-18.08;-18.62
-4.14;-5.99;-6.21;1.31;-22.11;-21.02
0.65;8.49;-4.57;1.31;-24.50;-16.23
-0.98;-1.20;-3.05;2.18;-22.11;-10.56
-0.11;-6.86;-2.18;-14.81;-20.47;-8.93
-5.77;-2.83;-2.18;-6.75;-20.47;0.65
-2.61;17.32;-1.42;-1.85;-9.26;2.29
1.42;3.59;-2.18;-3.48;1.20;2.29
-4.14;-6.86;3.48;-2.72;5.23;7.95
-7.41;1.20;3.48;-4.25;6.10;14.37
3.05;5.23;3.48;-1.85;5.23;16.77
-7.41;-0.44;1.85;-1.85;15.68;16.77
-4.14;2.83;1.85;-1.85;6.10;16.01
-0.98;-0.44;-0.54;0.54;10.13;2.29
-1.74;-28.53;0.22;-30.06;12.52;-6.53
-10.67;-5.23;-1.42;28.75;15.68;-6.53
-1.74;0.44;-2.18;5.34;10.89;-10.56
2.29;-1.96;-5.44;3.81;16.55;-1.74
-0.98;2.07;-3.05;2.94;-12.52;-12.96
0.65;1.20;-19.93;8.60;18.19;-0.11
1.42;2.83;0.22;11.87;10.89;-10.56
1.42;1.20;-4.57;4.57;6.10;-14.59
-0.98;2.83;-2.18;2.94;1.20;-9.80
0.65;2.83;-2.18;0.54;-8.49;2.29
-4.14;5.23;-12.63;-11.54;-10.02;3.92
-2.61;-1.96;-9.47;-13.18;-5.23;14.37
-0.11;5.23;-0.54;-5.88;-11.65;13.61
-0.98;-1.96;-2.18;-9.15;-14.92;7.95
0.65;-7.62;2.61;-5.88;-13.29;7.95
-0.98;4.46;2.61;-1.85;-11.65;11.98
-0.98;3.59;7.51;32.78;-7.62;10.35
3.05;4.46;2.61;21.45;18.19;7.19
-4.14;5.23;3.48;2.18;0.44;2.29
1.42;4.46;9.04;11.00;4.46;-10.56
-1.74;-0.44;-2.18;-0.22;5.23;-6.53
2.29;-2.83;-0.54;9.37;7.62;-8.17
3.05;2.83;-0.54;0.54;3.59;-3.38
2.29;0.44;9.91;0.54;23.74;-8.17
3.05;-6.86;-2.18;0.54;14.16;-3.38
3.05;-3.59;-4.57;-1.09;13.29;-1.74
0.65;-3.59;-7.08;-1.85;10.13;-10.56
2.29;-3.59;-6.21;29.51;7.62;-14.59
1.42;-7.62;-5.44;39.20;-3.59;-5.77
2.29;2.83;-3.81;2.94;-27.77;-6.53
-8.17;-18.95;-2.18;-2.72;-22.98;0.65
5.44;-2.83;1.85;12.63;-21.34;6.32
2.29;-2.83;-2.18;-1.85;-22.11;2.29
-1.74;-1.96;-3.05;-6.75;-21.34;10.35
-0.98;1.20;-15.14;-1.85;-10.02;7.95
-0.11;-1.96;-12.63;-2.72;-10.89;4.68
2.29;0.44;-12.63;-9.15;-14.92;3.92
-1.74;6.10;-4.57;-0.22;-4.46;7.95
-0.98;5.23;10.67;-6.75;-3.59;2.29
3.05;2.83;71.11;-5.88;2.83;0.65
17.53;19.71;24.39;-0.22;10.89;-4.90
-1.74;-14.92;1.85;-11.54;14.16;-6.53
-0.98;-0.44;-2.18;2.94;18.19;-6.53
3.05;0.44;-11.11;8.60;18.95;-30.71
-0.98;-2.83;10.67;6.97;17.32;-4.90
-0.11;2.83;-9.47;11.00;13.29;-7.41
1.42;-0.44;-9.47;3.81;13.29;-8.17
-1.74;0.44;-6.21;0.54;6.86;-7.41
2.29;-1.96;-3.81;21.45;3.59;-10.56
-22.76;2.07;-4.57;10.24;-5.99;-1.74
-0.11;0.44;-10.24;2.18;-7.62;3.92
1.42;-1.96;-6.21;1.31;-8.49;7.95
-0.98;4.46;-1.42;-2.72;2.83;14.37
5.44;0.44;-4.57;-1.09;-5.99;19.28
3.05;-0.44;4.25;3.81;5.23;7.19
-1.74;3.59;5.88;8.60;8.49;16.01
2.29;5.23;2.61;-6.75;8.49;11.22
3.05;-0.44;5.88;-13.18;5.23;9.58
-5.01;5.23;9.04;-1.09;3.59;25.70
2.29;2.83;5.88;2.94;5.23;3.16
2.29;1.20;9.91;2.94;-0.44;-0.11
3.05;1.20;-23.20;3.81;-7.62;25.70
3.05;-6.86;-4.57;3.81;-10.02;-38.01
1.42;-0.44;-3.05;0.54;-16.55;-37.13
3.05;2.07;-5.44;1.31;-15.68;-12.96
0.65;-2.83;-2.18;6.97;-12.52;-14.59
3.05;-3.59;-8.60;2.18;-2.83;-21.02
-0.98;-5.23;-7.08;-1.85;-7.62;-21.02
-6.64;-3.59;-10.24;-1.85;-7.62;-10.56
-1.74;-20.47;-5.44;-3.48;-2.83;-5.77
-4.14;-6.86;-2.18;-2.72;-11.65;2.29
-4.14;5.23;-2.18;-5.88;-10.02;28.86
-0.98;0.44;-1.42;-6.75;-6.86;11.22
1.42;-1.96;0.22;-12.31;1.20;16.01
3.05;2.83;1.85;-6.75;6.10;19.28
-2.61;-3.59;3.48;-2.72;12.52;16.01
-0.11;0.44;-3.05;-1.85;14.16;49.00
3.05;0.44;1.85;0.54;12.52;23.30
-0.98;33.43;3.48;1.31;15.68;12.74
3.92;3.59;2.61;11.00;27.01;5.55
1.42;-2.83;-15.90;5.34;12.52;14.37
3.05;5.23;-0.54;10.24;18.19;-8.93
-0.98;-2.83;-3.05;13.39;6.86;-15.46
-2.61;-9.26;-3.81;5.34;3.59;-15.46
-0.98;-1.96;-7.84;8.60;3.59;-12.96
-8.17;-3.59;-6.21;9.37;-5.23;2.29
3.92;3.59;-3.81;6.21;-3.59;-10.56
-8.17;-0.44;-3.81;-1.09;-18.95;-19.49
3.05;5.23;-6.21;-9.91;-17.32;-14.59
-0.98;2.83;-5.44;-10.78;-24.50;-9.80
-1.74;-2.83;-1.42;-3.48;-18.08;2.29
3.05;0.44;-1.42;-4.25;-37.46;9.58
-3.38;0.44;1.85;-9.15;-13.29;7.95
2.29;1.20;-0.54;-9.15;0.44;13.61
-2.61;2.83;3.48;-2.72;7.62;19.28
-1.74;1.20;0.22;-3.48;14.16;12.74
-7.41;-11.65;2.61;2.94;9.26;16.01
3.05;11.65;3.48;-2.72;11.65;18.40
0.65;-5.23;-12.63;-1.85;5.23;12.74
-9.80;-5.23;-0.54;-2.72;10.89;-0.87
3.05;-6.86;-13.50;-2.72;3.59;26.46
-0.11;-4.36;-3.05;-2.72;-3.59;-14.59
-0.98;-3.59;-0.54;7.84;-7.62;-14.59
1.42;-0.44;-2.18;3.81;-4.46;-10.56
-0.98;3.59;0.22;7.84;-2.83;-10.56
2.29;26.24;5.88;10.24;7.62;-2.50
3.05;4.46;-3.81;8.60;17.32;-11.43
-0.98;39.10;-4.57;28.75;10.13;-12.96
2.29;-6.86;-4.57;6.21;17.32;-9.80
-1.74;-5.99;-2.18;1.31;18.19;3.16
2.29;-1.96;-2.18;-3.48;7.62;6.32
-7.41;-2.83;-1.42;-1.85;4.46;3.16
-0.11;-3.59;-19.93;-9.91;0.44;2.29
3.05;-1.96;-3.05;-5.88;-3.59;17.64
1.42;1.20;-10.24;-9.15;-4.46;-15.46
0.65;1.20;-0.54;-1.85;-31.04;6.32
2.29;3.59;-3.81;2.94;-9.26;6.32
2.29;5.23;2.61;-3.48;-8.49;7.95
2.29;1.20;5.01;2.18;-10.02;2.29
-6.64;5.23;2.61;-2.72;2.83;-5.77
-1.74;5.23;3.48;-1.85;-5.99;-2.50
0.65;2.83;-3.05;1.31;-2.83;-9.80
0.65;2.83;-2.18;-3.48;-7.62;-12.20
2.29;-5.23;-3.05;13.39;-8.49;-8.17
2.29;-8.39;-6.21;-2.72;-7.62;-15.46
18.40;-20.47;-5.44;-5.88;-2.83;10.35
-2.61;1.20;-15.90;0.54;4.46;-11.43
-24.28;4.46;-15.90;2.94;10.13;-12.20
-33.21;-15.68;-3.81;3.81;13.29;-3.38
-4.14;-7.62;-6.21;2.18;18.19;2.29
-5.77;4.46;-0.54;34.41;18.19;3.16
15.14;-2.83;-1.42;3.81;13.29;11.22
19.17;1.20;3.48;2.18;10.13;11.22
0.65;5.23;-6.21;-1.85;5.23;-11.43
2.29;-5.23;0.98;-1.85;5.23;11.98
2.29;-0.44;6.64;-1.09;-5.23;5.55
0.65;0.44;-2.18;-9.15;-7.62;2.29
-2.61;2.07;6.64;-1.85;-10.02;7.95
0.65;1.20;3.48;-1.85;-10.02;-5.77
3.05;2.83;5.01;-0.22;-20.47;0.65
3.05;4.46;0.98;-11.54;-10.02;-11.43
2.29;-1.96;-2.18;2.18;-8.49;-9.80
2.29;-20.47;-2.18;2.94;3.59;-9.80
3.05;-3.59;10.67;6.21;-2.83;-9.80
0.65;-2.83;-17.53;8.60;-5.99;-8.17
-1.74;2.83;-2.18;35.17;-3.59;-8.93
-1.74;-2.83;-6.21;3.81;10.89;-8.17
0.65;-3.59;-11.11;-1.09;12.52;-21.02
-0.98;-9.26;-4.57;-2.72;18.19;-2.50
3.05;-4.36;-3.05;-1.09;17.32;-1.74
3.05;0.44;-2.18;0.54;16.55;-10.56
3.05;-1.96;-0.54;-2.72;9.26;9.58
0.65;-0.44;-0.54;-1.85;-5.23;16.77
0.65;4.46;-14.27;3.81;5.23;13.61
3.92;5.23;-16.66;-3.48;5.23;14.37
-2.61;4.46;-10.24;-2.72;0.44;18.40
2.29;-0.44;-12.63;-3.48;-8.49;23.30
3.05;5.23;-2.18;-1.09;-12.52;19.28
-0.98;3.59;25.16;-2.72;-12.52;7.19
5.44;0.44;75.14;6.97;1.20;-1.74
2.29;0.44;-2.18;-0.22;-7.62;-12.96
-5.01;1.20;-2.18;-4.25;-13.29;1.52
0.65;-20.47;-7.84;-3.48;-14.92;-23.52
3.05;2.83;-6.21;-4.25;-12.52;-21.02
-0.98;1.20;-6.21;-11.54;-18.08;-22.65
-6.64;-5.99;-10.24;6.21;-18.08;-17.86
3.05;-1.96;-10.24;0.54;-22.98;-10.56
-0.98;-6.86;-9.47;0.54;-21.34;-19.49
3.05;-1.96;-7.84;-5.88;-8.49;-8.93
3.05;-8.39;-5.44;6.21;5.23;2.29
-3.38;2.83;1.85;5.34;17.32;7.19
2.29;0.44;0.98;2.18;28.64;13.61
-5.77;-2.83;-2.18;2.18;30.27;3.92
-3.38;-2.83;-3.05;2.94;31.04;15.25
0.65;19.71;-2.18;0.54;22.98;16.77
-0.98;5.23;-1.42;2.18;18.19;17.64
-0.98;4.46;2.61;7.84;12.52;20.80
-21.89;-0.44;1.85;-5.88;26.24;19.28
3.05;4.46;2.61;-7.51;5.23;14.37
0.65;9.26;-0.54;6.21;-11.65;2.29
3.05;-6.86;0.22;0.54;-0.44;-4.14
3.05;-1.96;-2.18;12.63;-5.99;-9.80
3.05;-24.50;-1.42;11.87;-0.44;-9.80
2.29;-3.59;-7.84;0.54;-5.23;-10.56
3.05;-0.44;-4.57;3.81;-0.44;-15.46
2.29;2.83;-7.84;0.54;-3.59;-15.46
-0.98;2.07;-4.57;-0.22;-6.86;-20.26
0.65;-24.50;-2.18;6.97;-1.96;-17.86
-0.98;10.13;-3.05;5.34;-0.44;-8.17
3.05;5.23;3.48;9.37;1.20;1.52
-0.98;4.46;3.48;2.18;-2.83;1.52
0.65;-4.36;-2.18;2.94;5.23;11.22
-0.98;-3.59;-1.42;-1.85;5.23;15.25
1.42;-2.83;-2.18;0.54;3.59;16.77
0.65;2.83;0.22;-1.85;6.10;11.22
-12.20;4.46;9.91;-1.85;2.07;27.33
-5.01;-1.96;0.22;-3.48;0.44;11.22
3.05;35.07;2.61;-1.85;2.83;14.37
3.05;10.89;-1.42;15.90;3.59;3.92
1.42;2.83;0.22;-2.72;-13.29;0.65
0.65;1.20;-2.18;-5.88;-5.99;-0.11
-0.98;-1.96;-0.54;0.54;-6.86;-17.86
1.42;-1.96;-3.05;6.97;-6.86;-43.67
0.65;-2.83;-0.54;17.42;-5.99;-17.86
1.42;2.83;-7.84;6.97;-6.86;-16.23
-0.98;-5.23;-3.81;2.18;10.13;-12.96
3.05;3.59;-4.57;-1.85;-3.59;-7.41
-5.01;0.44;-2.18;-5.88;1.20;-17.86
-2.61;-2.83;-3.81;-3.48;0.44;5.55
-0.98;1.20;-2.18;-6.75;2.83;-0.87
-0.98;0.44;-2.18;-0.22;10.89;9.58
-2.61;-26.14;-2.18;-3.48;6.10;20.80
0.65;-5.23;-2.18;-0.22;6.10;29.73
-4.14;-5.23;-27.99;-5.88;5.23;20.80
0.65;-6.86;1.85;-25.26;5.23;19.28
2.29;-0.44;2.61;-1.85;5.23;36.15
3.05;-10.02;9.04;-1.85;7.62;17.64
3.05;0.44;10.67;-1.85;23.74;16.77
3.05;12.52;21.13;6.97;6.10;9.58
3.05;31.04;9.91;5.34;10.89;-0.11
-1.74;0.44;-5.44;10.24;5.23;-4.90
-1.74;-1.20;-2.18;2.94;5.23;-11.43
3.05;2.07;-2.18;8.60;-0.44;-17.86
3.05;2.07;-1.42;2.18;-0.44;-9.80
0.65;-5.99;-6.21;-2.72;-8.49;-11.43
2.29;-30.17;-7.84;-7.51;-19.71;-17.86
-3.38;-4.36;13.94;-1.85;-20.47;2.29
-2.61;-5.23;-15.90;-2.72;-11.65;-21.02
-9.04;-5.23;-3.05;-7.51;-17.32;-11.43
-4.14;-3.59;-1.42;-3.48;-8.49;-0.11
3.92;0.44;26.03;-7.51;-8.49;1.52
0.65;-2.83;-3.05;-1.09;1.20;7.19
-0.11;-7.62;-2.18;0.54;1.20;7.19
-0.98;-6.86;-1.42;-3.48;6.10;16.01
2.29;4.46;-1.42;2.94;5.23;14.37
-4.14;3.59;0.98;-0.22;10.89;15.25
-1.74;27.77;3.48;-13.94;5.23;14.37
-0.98;3.59;1.85;11.00;29.40;25.70
3.05;5.23;7.51;6.97;20.58;12.74
36.92;-1.96;3.48;2.94;23.74;4.68
3.05;-1.96;-1.42;-2.72;35.07;-2.50
0.65;1.20;0.22;0.54;10.13;-11.43
-0.98;18.95;0.22;2.94;13.29;-10.56
1.42;0.44;-2.18;3.81;-17.32;-11.43
-0.98;2.83;-27.99;6.21;-18.95;-10.56
2.29;-3.59;-4.57;6.97;-29.40;-8.93
-5.77;-5.23;-5.44;-1.85;-33.43;-18.62
3.05;-4.36;-5.44;1.31;-22.11;-20.26
3.05;-2.83;-23.20;-1.09;-19.71;-8.17
3.05;2.07;-20.69;-1.85;-8.49;-3.38
3.05;4.46;-19.17;-3.48;-5.23;-1.74
3.05;-3.59;-14.27;-0.22;5.23;7.19
2.29;3.59;-3.05;-4.25;5.23;-4.90
-1.74;2.83;54.99;0.54;5.23;7.95
-4.14;-1.20;54.99;-3.48;10.89;24.07
-2.61;-7.62;8.28;-1.85;7.62;15.25
-8.17;-5.23;1.85;-3.48;13.29;15.25
-0.98;1.20;-0.54;5.34;4.46;16.01
-0.11;4.46;1.85;-2.72;9.26;9.58
3.92;18.95;1.85;-2.72;12.52;7.19
1.42;6.10;-3.05;-0.22;13.29;-0.11
3.05;1.20;-2.18;-0.22;5.23;-4.90
-0.11;-1.96;-6.21;-5.88;5.23;-9.80
-12.20;-5.99;-7.08;3.81;15.68;-12.96
-0.98;-1.96;-16.66;1.31;14.16;-7.41
-5.77;2.07;-11.87;-18.84;-6.86;-10.56
-0.98;-3.59;-6.21;26.35;-1.96;-18.62
-4.14;-6.86;-11.11;9.37;-9.26;-21.89
-0.98;0.44;-3.05;0.54;-16.55;-18.62
1.42;-3.59;-3.81;2.18;-16.55;-6.53
1.42;-5.23;-2.18;-1.09;-26.14;9.58
-2.61;26.24;0.22;-12.31;-28.53;3.16
0.65;-5.99;-1.42;29.51;-20.47;3.16
-2.61;4.46;-1.42;-5.88;-20.47;12.74
-0.98;0.44;1.85;-9.15;-14.92;7.19
-4.14;2.07;-1.42;-7.51;-8.49;10.35
-0.98;-24.50;1.85;-3.48;1.20;18.40
3.05;-2.83;5.88;-5.88;5.23;7.19
1.42;-1.96;1.85;0.54;12.52;13.61
-0.98;6.86;-1.42;1.31;10.13;2.29
3.05;1.20;-2.18;-1.85;10.89;-3.38
1.42;1.20;0.22;-4.25;5.23;-11.43
2.29;0.44;-1.42;0.54;7.62;-9.80
3.05;7.62;-3.81;-30.93;14.16;-8.17
0.65;-3.59;-3.05;8.60;10.89;-8.93
-1.74;-1.96;-3.81;3.81;16.55;-9.80
1.42;-1.96;-7.84;38.44;17.32;-11.43
-0.98;-2.83;-6.21;-0.22;-0.44;-10.56
2.29;-0.44;-2.18;5.34;5.23;-10.56
3.05;3.59;-3.05;19.93;-9.26;-2.50
2.29;-8.39;0.22;-1.85;3.59;2.29
-6.64;0.44;-0.54;1.31;5.23;7.19
-0.98;-1.20;5.88;-1.09;5.23;20.80
0.65;1.20;0.22;3.81;5.23;13.61
3.05;-6.86;2.61;1.31;4.46;8.71
6.32;5.23;5.01;-1.85;1.20;14.37
-0.11;2.83;7.51;-2.72;4.46;20.04
-2.61;0.44;5.01;-0.22;2.07;17.64
-1.74;-5.23;4.25;-0.22;5.23;5.55
1.42;5.23;2.61;-1.09;-5.99;-1.74
-0.11;4.46;3.48;-4.25;-5.23;8.71
2.29;1.20;-0.54;-1.09;-9.26;-12.20
2.29;2.83;-2.18;-1.85;-5.23;-15.46
1.42;1.20;-3.05;-1.85;-5.23;-15.46
-4.14;-3.59;-3.05;-3.48;1.20;-12.96
1.42;-10.02;-9.47;2.18;5.23;-17.86
-0.11;-2.83;-6.21;-0.22;7.62;-13.83
1.42;-1.96;-9.47;2.18;2.83;-19.49
3.05;0.44;-2.18;2.94;3.59;-8.17
-4.14;-5.99;-3.05;19.06;-4.46;-0.11
-1.74;-0.44;-3.81;-1.09;-5.23;3.16
0.65;4.46;-3.81;-1.09;-18.08;10.35
0.65;2.83;22.76;-4.25;-26.14;5.55
1.42;3.59;-0.54;11.00;-47.15;16.01
3.05;-0.44;0.98;2.94;-17.32;15.25
-0.98;1.20;1.85;2.94;-8.49;11.22
0.65;5.23;9.04;-1.85;16.55;12.74
1.42;-4.36;5.88;2.18;10.89;16.01
3.05;-0.44;-2.18;-1.85;27.01;-0.11
-0.98;-3.59;0.22;2.18;15.68;-0.11
-0.98;-12.41;0.22;39.20;16.55;2.29
0.65;-1.20;0.22;6.21;29.40;-21.89
-0.98;2.83;9.04;6.97;23.74;-3.38
-0.98;30.27;10.67;3.81;14.16;-10.56
1.42;12.52;1.85;6.97;8.49;-9.80
3.05;29.40;0.22;25.48;22.22;-2.50
0.65;-7.62;-2.18;-0.22;-10.89;-10.56
-1.74;-11.65;-3.05;-30.06;-19.71;-16.23
0.65;-2.83;-10.24;-5.12;-31.04;-9.80
-9.80;-5.23;-2.18;-5.88;-20.47;-0.87
-5.01;-6.86;-10.24;-32.45;-15.68;0.65
21.56;-3.59;-16.66;-9.91;-5.23;3.16
2.29;-0.44;-3.05;-2.72;-3.59;7.95
-0.11;-24.50;-3.05;-5.88;5.23;11.22
-5.77;-18.95;1.85;-9.15;17.32;16.01
21.56;0.44;0.22;0.54;7.62;17.64
-5.01;0.44;1.85;-0.22;28.64;11.22
3.05;-1.96;3.48;-7.51;9.26;14.37
0.65;-1.20;-2.18;0.54;7.62;13.61
0.65;-10.89;2.61;2.18;5.23;-1.74
3.05;1.20;1.85;6.97;5.23;2.29
1.42;-4.36;-11.11;8.60;-0.44;-5.77
-4.14;2.83;-2.18;29.51;-20.47;-15.46
3.05;1.20;-9.47;2.18;-18.95;3.92
0.65;-34.19;-19.17;-1.09;-21.34;-16.23
-0.98;-5.23;-20.69;-4.25;-26.14;-12.96
-0.98;19.71;-27.99;-1.09;-18.08;-16.23
-5.01;1.20;-20.69;-1.85;-7.62;-17.86
3.05;-34.19;1.85;5.34;-4.46;-12.96
-2.61;3.59;64.69;1.31;9.26;-7.41
-5.77;-1.96;22.76;5.34;7.62;3.16
0.65;-7.62;-2.18;2.18;5.23;6.32
-4.14;2.83;-2.18;-1.09;14.16;16.77
3.05;5.23;-0.54;-0.22;22.98;21.67
-2.61;2.07;5.01;0.54;16.55;52.27
-1.74;4.46;-1.42;-0.22;7.62;16.77
-0.11;-2.83;-2.18;2.18;3.59;29.73
1.42;3.59;1.85;-2.72;-1.96;19.28
3.05;5.23;10.67;-1.85;-6.86;11.22
-0.98;5.23;2.61;-0.22;-8.49;2.29
0.65;-3.59;3.48;-3.48;-9.26;-3.38
14.37;0.44;-15.90;-2.72;-8.49;-6.53
-1.74;3.59;-2.18;0.54;-6.86;-10.56
-4.14;29.40;-7.08;-19.60;-5.99;-17.86
-1.74;5.23;-15.14;-1.85;-1.96;-14.59
0.65;-3.59;-10.24;-1.85;-1.96;-21.89
3.05;-5.99;-14.27;0.54;4.46;6.32
1.42;-0.44;-18.30;2.18;18.19;-17.86
3.05;-0.44;-16.66;1.31;22.22;-17.86
-0.98;-6.86;-4.57;-2.72;23.74;-4.90
0.65;-3.59;-0.54;0.54;13.29;1.52
0.65;-3.59;5.01;0.54;4.46;10.35
2.29;22.22;-1.42;8.60;1.20;12.74
1.42;0.44;-1.42;2.94;-10.02;4.68
32.89;0.44;0.22;-2.72;-14.05;15.25
1.42;3.59;1.85;-3.48;-20.47;7.19
-0.98;0.44;1.85;-3.48;-21.34;16.01
-0.11;3.59;2.61;-2.72;-14.92;16.01
1.42;31.04;6.64;-1.85;5.23;4.68
-1.74;-0.44;5.88;-3.48;14.16;2.29
-0.98;3.59;6.64;0.54;16.55;3.16
3.05;-0.44;0.22;0.54;5.23;-25.92
-4.14;18.19;-3.81;0.54;-5.99;-5.77
3.05;-7.62;-3.05;0.54;-6.86;-6.53
0.65;26.24;-3.05;10.24;0.44;-8.17
3.05;-1.96;-6.21;3.81;-7.62;-6.53
1.42;-2.83;-7.84;6.21;22.22;-10.56
1.42;-4.36;-7.84;2.94;18.19;-17.86
2.29;-2.83;-6.21;-1.85;5.23;-12.96
3.05;-5.99;-12.63;-0.22;-10.02;0.65
-2.61;-1.96;-6.21;-1.09;-20.47;11.98
2.29;29.40;-3.81;21.45;-18.95;3.92
-2.61;-6.86;10.67;3.81;-16.55;-0.87
3.05;0.44;-0.54;-3.48;-17.32;7.95
1.42;-1.96;1.85;3.81;-1.96;7.19
-0.98;1.20;3.48;-2.72;-1.96;13.61
2.29;43.12;3.48;-4.25;5.23;16.01
2.29;-5.99;6.64;8.60;-1.96;19.28
0.65;-21.34;9.04;11.00;18.19;13.61
-0.98;5.23;2.61;2.94;5.23;3.92
-4.14;-3.59;2.61;-26.90;7.62;2.29
-0.98;3.59;2.61;-0.22;13.29;-8.93
-0.98;3.59;-2.18;-14.81;14.16;-9.80
-2.61;-1.20;-6.21;-2.72;10.89;-5.77
-0.98;-11.65;-2.18;5.34;5.23;-9.80
1.42;6.86;-2.18;2.94;4.46;-8.93
0.65;1.20;-4.57;-1.09;-1.96;-7.41
3.05;21.34;-7.84;-13.94;-3.59;-21.02
7.08;2.83;-3.81;-3.48;-6.86;-16.23
-3.38;2.83;-3.81;-11.54;-8.49;-8.17
2.29;-3.59;-2.18;27.12;-1.96;0.65
0.65;-2.83;-2.18;-1.09;0.44;11.22
3.05;2.83;2.61;11.00;2.83;7.95
-31.58;5.23;0.22;-4.25;6.10;15.25
-0.98;-5.23;-0.54;2.94;-0.44;16.01
0.65;-1.96;1.85;-1.85;22.22;15.25
15.14;7.62;-2.18;16.66;31.80;14.37
-5.77;7.62;1.85;-0.22;7.62;16.77
3.05;5.23;2.61;-9.91;6.86;7.95
-2.61;0.44;1.85;0.54;14.16;0.65
3.05;0.44;1.85;0.54;10.89;-8.17
3.05;-2.83;-1.42;6.21;9.26;-8.17
-0.98;3.59;-0.54;3.81;1.20;-11.43
3.05;-0.44;-2.18;-1.09;-5.23;-14.59
3.05;-1.96;-0.54;-2.72;-3.59;-14.59
-14.70;-18.08;-4.57;31.91;-0.44;-8.17
-1.74;-5.23;25.16;6.21;-31.80;-10.56
0.65;-7.62;-5.44;11.00;-33.43;-12.96
0.65;-2.83;-7.08;-3.48;-33.43;-17.86
-4.14;-1.96;-7.08;-1.09;-18.08;-9.80
2.29;1.20;-4.57;-1.09;-1.96;-6.53
-1.74;9.26;-2.18;3.81;12.52;4.68
-0.11;-3.59;-2.18;0.54;14.16;13.61
3.92;-21.34;5.01;-9.15;20.58;20.04
3.05;6.10;3.48;-3.48;18.95;16.77
0.65;14.92;1.85;0.54;20.58;17.64
-6.64;5.23;5.01;6.97;36.70;14.37
2.29;1.20;5.01;3.81;31.80;25.70
-0.98;0.44;6.64;2.18;16.55;12.74
-0.98;-14.92;5.88;0.54;0.44;2.29
0.65;2.07;17.97;-2.72;-10.02;-14.59
2.29;-16.44;0.22;2.18;-13.29;-9.80
2.29;-1.96;-2.18;-1.85;-21.34;-12.96
3.05;-5.99;-4.57;2.18;-3.59;-16.23
6.32;1.20;-4.57;3.81;-19.71;-21.02
4.68;4.46;9.91;-1.09;-15.68;-19.49
-1.74;-6.86;-3.81;0.54;-16.55;-14.59
3.05;-1.20;22.00;5.34;-14.92;-46.83
-0.98;-5.23;-7.08;-1.09;-10.89;-11.43
-5.77;-5.99;-14.27;1.31;-5.99;20.80
2.29;-5.99;-3.81;-1.09;-9.26;-1.74
-0.98;-0.44;-2.18;-3.48;2.83;4.68
-4.14;2.83;-0.54;-1.85;4.46;16.01
1.42;-20.47;5.01;-2.72;5.23;16.01
3.05;0.44;8.28;-1.09;10.89;1.52
2.29;3.59;-0.54;0.54;12.52;16.01
2.29;2.83;-6.21;3.81;18.19;20.80
3.05;4.46;-15.14;-4.25;18.95;25.70
3.05;2.07;-19.17;-1.85;19.71;40.95
1.42;1.20;-1.42;-1.85;17.32;3.16
-0.98;5.23;-2.18;-5.88;18.95;3.16
2.29;3.59;20.36;10.24;9.26;-0.11
2.29;2.83;85.60;11.00;11.65;-6.53
1.42;5.23;22.76;6.21;-0.44;-9.80
-0.11;-8.39;-2.18;29.51;-1.96;-6.53
1.42;-23.74;-11.87;-12.31;-1.96;-5.77
0.65;0.44;-13.50;-14.81;-15.68;-19.49
-3.38;-3.59;-13.50;-7.51;-12.52;-21.89
2.29;-5.23;-9.47;-0.22;2.83;-16.23
1.42;34.30;-7.84;-2.72;-20.47;-10.56
3.05;1.20;-7.08;6.21;-16.55;-1.74
3.05;-0.44;-2.18;0.54;-10.02;3.92
3.05;2.07;-2.18;9.37;-3.59;11.98
-0.11;1.20;0.22;0.54;6.10;12.74
-5.01;-0.44;-2.18;6.97;12.52;15.25
2.29;1.20;0.22;0.54;11.65;12.74
-0.98;5.23;5.01;-17.21;18.95;17.64
-0.98;-1.96;2.61;-2.72;25.37;-5.77
3.05;-1.96;4.25;23.96;21.34;16.77
2.29;5.23;1.85;-2.72;5.23;7.95
2.29;5.23;8.28;3.81;-1.20;2.29
3.92;-0.44;0.22;2.94;-1.96;-10.56
2.29;2.83;-0.54;-2.72;-8.49;-9.80
3.05;1.20;-7.08;6.21;-7.62;-9.80
3.05;-0.44;-4.57;9.37;-19.71;-8.17
-0.98;-6.86;-8.60;2.18;-11.65;-10.56
0.65;-6.86;-13.50;2.94;-27.77;-10.56
1.42;-5.23;-10.24;-19.60;-3.59;-13.83
3.05;-5.99;-12.63;-1.85;1.20;-10.56
3.05;1.20;-3.05;-1.85;9.26;-23.52
3.05;0.44;3.48;6.21;9.26;-0.11
3.05;26.24;13.07;35.94;6.10;5.55
-0.98;7.62;2.61;10.24;-7.62;10.35
2.29;0.44;0.22;-5.88;4.46;7.95
1.42;-2.83;-1.42;-9.91;-8.49;9.58
-6.64;3.59;-2.18;-7.51;-5.23;7.95
0.65;-0.44;0.22;0.54;6.86;14.37
-1.74;-1.20;5.88;0.54;10.13;12.74
-0.98;3.59;-1.42;-2.72;5.23;3.92
-3.38;-0.44;-3.05;-11.54;-16.55;0.65
-7.41;-5.99;3.48;-1.09;-38.22;-11.43
-4.14;-2.83;3.48;-1.09;-40.62;-9.80
1.42;2.83;1.85;3.81;-30.17;-10.56
-23.52;-3.59;-4.57;5.34;-18.95;-10.56
-4.14;-5.23;-3.81;-2.72;-8.49;-10.56
-0.98;-1.96;-7.08;1.31;20.58;-9.80
-1.74;-1.96;-7.08;0.54;14.16;-21.02
0.65;-1.96;-7.84;-1.85;19.71;-21.02
1.42;-3.59;-2.18;6.97;16.55;-31.58
3.05;0.44;-3.05;2.94;17.32;-9.80
-0.98;-5.23;0.22;-1.85;17.32;4.68
3.05;-5.23;-2.18;32.78;17.32;11.98
0.65;4.46;0.98;-4.25;18.95;16.01
1.42;-0.44;2.61;-2.72;15.68;20.80
2.29;1.20;9.04;8.60;16.55;17.64
-0.98;18.95;5.88;-1.85;13.29;17.64
1.42;3.59;-0.54;-0.22;7.62;17.64
4.68;-1.96;3.48;5.34;18.95;24.07
-0.11;0.44;7.51;2.18;2.83;14.37
1.42;0.44;-3.81;0.54;-0.44;3.92
2.29;1.20;-1.42;-1.85;-5.99;0.65
1.42;5.23;-1.42;0.54;-0.44;-8.17
0.65;2.83;0.22;0.54;-0.44;22.43
3.05;-0.44;-1.42;0.54;23.74;2.29
0.65;-7.62;-6.21;2.18;6.10;-9.80
5.44;3.59;-5.44;3.81;5.23;-6.53
1.42;-2.83;-6.21;0.54;5.23;-9.80
2.29;3.59;-2.18;-1.09;4.46;-12.96
3.05;-7.62;-3.05;8.60;-1.96;-18.62
3.05;-2.83;-3.81;6.21;-6.86;-12.20
1.42;-1.96;3.48;-0.22;-1.96;-3.38
1.42;0.44;-0.54;-2.72;-5.99;33.76
3.05;-7.62;0.98;-10.78;-10.02;13.61
0.65;4.46;-0.54;-2.72;-7.62;12.74
3.05;-0.44;-1.42;-12.31;-5.99;20.04
-5.77;4.46;3.48;-4.25;-5.23;16.77
0.65;2.83;5.88;-2.72;1.20;20.04
3.05;-27.77;3.48;9.37;5.23;23.30
3.05;-1.20;3.48;-6.75;10.89;6.32
-0.11;1.20;-15.14;-1.85;8.49;-0.11
-4.14;3.59;10.67;2.18;3.59;-6.53
-5.01;3.59;-2.18;-22.87;-3.59;-20.26
-1.74;-3.59;-6.21;-2.72;-8.49;-20.26
1.42;-3.59;-2.18;3.81;-10.02;-16.23
3.05;-3.59;-7.84;8.60;-18.95;-18.62
3.05;4.46;-3.81;9.37;-22.98;-18.62
0.65;2.83;-4.57;5.34;-21.34;-11.43
2.29;-1.20;-1.42;-0.22;-18.08;-18.62
-2.61;4.46;-3.05;7.84;-1.96;-11.43
-2.61;-0.44;-19.17;-3.48;-5.23;-4.90
-8.17;-2.83;-4.57;-9.15;5.23;4.68
3.05;2.83;-2.18;-6.75;6.10;11.98
1.42;-3.59;5.01;-1.09;10.89;16.01
2.29;-8.39;0.22;-0.22;5.23;21.67
1.42;1.20;-0.54;-1.09;7.62;17.64
0.65;2.83;2.61;-1.09;14.16;12.74
3.05;-1.96;8.28;6.21;18.95;16.01
2.29;1.20;15.57;-0.22;15.68;28.10
3.05;-0.44;3.48;-0.22;12.52;15.25
-1.74;5.23;19.60;-0.22;2.83;4.68
0.65;2.83;0.98;9.37;4.46;1.52
3.05;3.59;1.85;-1.85;2.07;-11.43
0.65;-1.96;-0.54;-13.94;3.59;-8.17
-2.61;-5.23;-2.18;2.94;2.83;-12.96
3.05;3.59;-2.18;10.24;-0.44;-14.59
1.42;2.83;19.60;3.81;5.23;-8.17
0.65;-2.83;-6.21;8.60;16.55;-12.96
-2.61;-2.83;-15.90;6.97;17.32;-25.92
3.05;-2.83;-7.08;2.18;5.23;-12.96
1.42;5.23;-13.50;-20.36;5.23;-4.90
-0.98;3.59;-9.47;-3.48;-11.65;1.52
1.42;10.13;-3.05;-1.09;-15.68;4.68
1.42;0.44;-2.18;-1.85;-7.62;6.32
-7.41;-3.59;1.85;-3.48;-9.26;6.32
-4.14;2.83;-11.11;-5.88;-13.29;5.55
-0.98;-19.71;-12.63;-5.88;-16.55;6.32
-0.98;-1.96;-13.50;-6.75;-18.08;12.74
-0.11;5.23;-25.59;-9.15;-14.92;7.19
-0.98;5.23;5.88;-14.81;-1.96;7.95
2.29;5.23;66.32;-1.85;-10.02;2.29
1.42;4.46;38.88;-2.72;-7.62;26.46
-1.74;1.20;8.28;-1.85;-10.02;-10.56
0.65;-1.96;-3.81;2.18;-5.23;-12.96
-3.38;22.98;-9.47;18.30;0.44;-8.17
-0.98;-5.99;-2.18;11.00;7.62;7.19
-4.14;10.89;-11.87;0.54;6.10;-9.80
-0.98;-3.59;-15.14;6.21;18.95;-10.56
3.05;1.20;-11.11;5.34;14.16;-17.86
-4.14;-2.83;-9.47;0.54;13.29;-11.43
-0.11;-5.23;-7.08;6.21;8.49;-4.90
-1.74;-1.96;-27.99;-0.22;7.62;-3.38
-5.77;-8.39;-3.81;6.97;3.59;3.92
-1.74;-27.77;-3.81;6.21;5.23;4.68
1.42;-0.44;-27.99;-1.09;0.44;14.37
0.65;-3.59;1.85;-4.25;4.46;24.07
-0.98;1.20;0.98;-2.72;30.27;16.01
-1.74;5.23;-2.18;-9.15;3.59;19.28
1.42;0.44;0.98;-1.09;2.83;16.77
-0.11;1.20;5.88;-2.72;0.44;17.64
2.29;5.23;3.48;13.39;3.59;2.29
3.05;-0.44;0.98;11.87;-5.99;-8.17
1.42;4.46;0.22;5.34;-0.44;-10.56
0.65;-31.80;-2.18;5.34;-0.44;-14.59
-0.98;5.23;-7.84;-0.22;4.46;-14.59
2.29;-7.62;-12.63;4.57;2.83;-13.83
-2.61;-43.89;-11.11;6.21;4.46;-10.56
1.42;-7.62;-27.99;-0.22;3.59;-5.77
2.29;-5.99;-7.08;2.18;10.13;-11.43
-0.98;-3.59;9.91;9.37;4.46;-8.93
-0.98;3.59;7.51;-2.72;3.59;-4.90
3.05;31.04;13.07;-4.25;6.10;3.16
11.11;5.23;1.85;0.54;14.16;17.64
1.42;5.23;19.60;2.94;31.80;16.01
0.65;17.32;2.61;-1.09;28.64;17.64
-0.11;-1.96;3.48;2.94;10.89;7.19
-5.01;-5.99;6.64;-4.25;-11.65;18.40
3.05;-20.47;-1.42;-2.72;-16.55;11.22
-0.11;-5.23;9.04;19.93;-19.71;14.37
3.05;2.83;0.98;-6.75;-25.37;2.29
-0.98;2.83;3.48;-6.75;-35.07;-2.50
3.05;-1.96;2.61;6.21;-25.37;-8.93
-5.01;2.07;-3.81;-13.94;-47.15;-12.20
1.42;-5.99;-3.81;-9.15;-18.08;-19.49
-0.98;-5.99;-7.08;-3.48;-18.08;-21.89
0.65;-3.59;-2.18;-1.85;1.20;-14.59
-0.11;-6.86;-7.84;23.09;17.32;-12.96
2.29;-0.44;-11.11;-35.72;4.46;-12.20
2.29;-1.96;-7.84;1.31;10.13;-14.59
-0.98;-3.59;-6.21;31.91;7.62;-12.20
0.65;28.64;-9.47;3.81;7.62;-3.38
3.05;2.83;-3.05;-1.09;2.83;2.29
-1.74;0.44;-2.18;-4.25;17.32;14.37
-0.98;10.89;-2.18;11.00;6.10;9.58
-0.98;-1.96;1.85;-1.85;6.10;11.22
-1.74;-0.44;-6.21;0.54;5.23;11.98
1.42;0.44;3.48;-1.09;4.46;17.64
5.44;5.23;-1.42;-0.22;19.71;20.80
3.05;1.20;6.64;-5.88;-0.44;20.04
-4.14;1.20;8.28;0.54;-3.59;14.37
1.42;0.44;5.88;-1.09;-6.86;7.95
-1.74;5.23;3.48;-2.72;-5.23;1.52
0.65;-1.96;-0.54;-1.85;-2.83;-0.87
3.05;4.46;-1.42;0.54;-5.99;-35.61
1.42;-28.53;-3.05;3.81;1.20;-10.56
2.29;-5.23;-9.47;1.31;5.23;-38.77
2.29;1.20;-6.21;3.81;5.23;-30.71
0.65;-2.83;-4.57;0.54;4.46;-12.20
1.42;-2.83;-7.84;2.94;9.26;-16.23
-1.74;3.59;-7.08;7.84;22.22;-10.56
-0.98;-3.59;-2.18;9.37;25.37;-8.17
-0.98;2.83;-1.42;6.21;18.19;7.95
-4.14;2.83;-3.81;3.81;7.62;7.19
3.05;-5.23;0.98;-32.45;-11.65;7.19
2.29;10.89;-0.54;-5.12;-14.92;10.35
2.29;-1.96;6.64;3.81;-20.47;14.37
1.42;1.20;5.88;-10.78;-27.77;16.01
2.29;-7.62;5.01;-9.15;-18.08;14.37
-1.74;4.46;-2.18;-6.75;-15.68;2.29
2.29;-0.44;3.48;-2.72;-14.92;7.19
0.65;-8.39;-1.42;-0.22;-9.26;9.58
2.29;4.46;-1.42;-0.22;-2.83;-0.11
-2.61;-10.02;-2.18;-1.85;2.83;-5.77
-0.11;-5.23;-5.44;1.31;4.46;-12.96
-4.14;-2.83;-4.57;9.37;5.23;-14.59
-5.01;-3.59;7.51;2.18;5.23;-14.59
-4.14;-3.59;-7.08;-1.09;5.23;-12.20
0.65;-2.83;-2.18;6.97;1.20;-5.77
-0.98;-5.99;-4.57;7.84;1.20;-30.71
-0.11;-2.83;-9.47;-0.22;-2.83;-14.59
-4.14;2.83;-3.05;-0.22;-5.23;-15.46
3.05;-1.96;-12.63;3.81;-0.44;-1.74
-2.61;1.20;0.98;0.54;5.23;38.55
3.05;-1.96;1.85;-1.85;4.46;17.64
-1.74;9.26;3.48;-1.85;0.44;24.07
-4.14;5.23;5.01;-22.87;4.46;16.77
-0.98;-5.23;0.22;-1.09;3.59;17.64
3.92;0.44;1.85;-1.85;1.20;19.28
7.08;4.46;-2.18;0.54;15.68;20.80
0.65;5.23;-15.90;6.21;20.58;18.40
3.05;4.46;-15.90;-7.51;17.32;2.29
0.65;-1.96;-15.14;5.34;10.13;-1.74
3.05;5.23;-12.63;-22.00;5.23;-8.17
3.05;5.23;-2.18;2.18;4.46;-8.17
3.05;3.59;49.33;0.54;5.23;-8.17
-0.98;-3.59;38.11;-1.85;-3.59;-11.43
1.42;3.59;1.85;5.34;-16.55;-8.93
1.42;4.46;-11.87;-1.09;-22.98;-8.17
3.05;-5.99;-25.59;0.54;-24.50;-18.62
0.65;-5.23;-9.47;-30.06;-14.92;-10.56
2.29;-4.36;-29.62;-2.72;0.44;-9.80
-4.14;1.20;-22.32;2.94;2.07;-10.56
-0.11;3.59;-2.18;0.54;4.46;0.65
-5.01;-3.59;-0.54;3.81;-0.44;6.32
-2.61;3.59;-20.69;-1.85;-6.86;10.35
3.05;4.46;1.85;2.18;-5.23;14.37
-0.11;4.46;3.48;-2.72;0.44;19.28
-0.98;5.23;-12.63;0.54;5.23;11.22
2.29;5.23;0.22;-5.88;5.23;17.64
3.05;-1.96;5.88;-1.85;7.62;14.37
0.65;-1.96;2.61;-3.48;5.23;3.92
0.65;5.23;0.22;-29.29;1.20;-5.77
2.29;1.20;-3.81;-7.51;4.46;-9.80
0.65;-1.96;-2.18;-6.75;-0.44;-8.93
-1.74;12.52;-2.18;-1.09;-3.59;-9.80
-0.98;5.23;-2.18;2.94;0.44;-16.23
0.65;-2.83;-32.02;6.97;-2.83;2.29
3.05;-22.98;-6.21;6.21;5.23;-12.96
3.05;-1.96;0.22;8.60;13.29;-18.62
3.05;-1.20;-2.18;13.39;5.23;-12.96
-0.98;-1.96;-2.18;3.81;1.20;-6.53
3.05;2.07;-2.18;3.81;-5.23;7.19
-2.61;2.07;0.22;0.54;-14.92;3.92
1.42;-0.44;-1.42;-18.84;-15.68;20.80
2.29;0.44;-2.18;-4.25;2.07;24.07
-0.98;-3.59;-1.42;3.81;6.10;19.28
-0.98;2.83;-7.84;-1.85;13.29;28.10
-0.11;4.46;9.91;-5.88;17.32;20.04
3.05;5.23;2.61;-6.75;14.92;20.80
-1.74;0.44;3.48;-9.15;6.10;15.25
-1.74;2.83;3.48;2.18;6.10;4.68
1.42;5.23;5.88;-23.63;-16.55;-1.74
2.29;3.59;-0.54;-5.12;-16.55;-15.46
-0.98;-3.59;-2.18;0.54;-18.08;-16.23
-1.74;0.44;-2.18;-0.22;-20.47;-16.23
3.05;5.23;-3.81;11.00;-10.89;-18.62
-2.61;6.10;-8.60;8.60;-1.96;-14.59
-0.98;-5.99;-10.24;2.18;5.23;-9.80
2.29;-1.96;-3.81;0.54;9.26;-15.46
-0.11;-3.59;-2.18;2.18;5.23;14.37
-1.74;-0.44;-5.44;3.81;6.86;-3.38
2.29;-13.29;-2.18;-10.78;6.86;0.65
2.29;4.46;11.54;5.34;6.86;7.95
0.65;3.59;0.22;-7.51;1.20;11.22
1.42;3.59;5.01;-1.85;-9.26;4.68
3.05;-18.95;0.22;-1.85;-11.65;9.58
3.05;5.23;-1.42;-5.88;-11.65;-15.46
3.05;0.44;19.60;-4.25;-5.99;-0.11
24.83;0.44;3.48;-2.72;28.64;20.80
-4.14;1.20;1.85;-1.85;10.89;16.01
-0.98;5.23;3.48;-1.85;10.89;2.29
0.65;-38.22;0.98;22.32;13.29;-7.41
1.42;5.23;3.48;-2.72;31.80;-5.77
1.42;-3.59;-2.18;-22.87;6.86;-10.56
3.92;0.44;-2.18;-0.22;4.46;-12.20
0.65;0.44;-7.08;9.37;5.23;-8.93
-0.11;3.59;-3.05;6.21;-10.02;-9.80
1.42;-5.23;-4.57;10.24;-20.47;-14.59
3.05;-1.96;-9.47;6.97;-15.68;-14.59
3.05;-5.23;-4.57;-1.09;-5.23;-10.56
0.65;2.83;-3.81;3.81;1.20;-0.11
-2.61;9.26;-2.18;-10.78;14.16;3.16
1.42;-1.96;-3.05;-1.85;10.13;11.22
1.42;15.68;-2.18;-10.78;10.89;12.74
3.05;1.20;-1.42;-3.48;5.23;12.74
3.05;3.59;2.61;-0.22;4.46;12.74
0.65;0.44;10.67;0.54;4.46;16.01
3.05;1.20;3.48;10.24;3.59;7.95
3.05;-3.59;0.22;6.21;3.59;13.61
-2.61;5.23;5.01;3.81;-1.96;15.25
-1.74;30.27;7.51;25.48;-6.86;7.19
1.42;-6.86;2.61;-4.25;-1.96;0.65
3.05;-1.96;-13.50;-2.72;-6.86;-6.53
5.44;0.44;-25.59;-3.48;-1.96;-7.41
-4.14;-0.44;-3.81;-4.25;-8.49;-9.80
0.65;1.20;-9.47;24.72;13.29;-8.93
-0.98;0.44;-7.84;-1.09;4.46;-23.52
-2.61;-5.23;-8.60;0.54;-6.86;-14.59
-2.61;-0.44;21.13;7.84;-14.92;-33.11
3.05;4.46;-3.81;2.18;-5.23;-15.46
-0.98;-3.59;-11.11;5.34;-2.83;-8.93
2.29;-4.36;-13.50;3.81;-3.59;-0.11
1.42;-11.65;-4.57;-0.22;3.59;2.29
-5.77;0.44;-6.21;22.32;5.23;4.68
-2.61;-2.83;-2.18;-9.91;2.07;16.77
-1.74;-5.23;8.28;-2.72;7.62;15.25
0.65;3.59;16.33;-18.84;9.26;13.61
0.65;15.68;9.91;-2.72;26.24;16.77
3.05;30.27;-1.42;5.34;-4.46;20.04
3.05;-22.11;-4.57;-6.75;-5.23;12.74
-0.11;0.44;-15.90;-3.48;-9.26;9.58
3.05;-0.44;-3.81;-1.09;-3.59;-12.20
4.68;5.23;23.63;6.97;-3.59;-8.93
8.71;-1.96;50.97;2.94;-5.99;-14.59
1.42;-2.83;9.04;0.54;-9.26;-11.43
-2.61;-12.41;-10.24;-0.22;-21.34;-14.59
-2.61;-8.39;-13.50;-1.09;0.44;-8.17
3.05;4.46;-10.24;-1.85;7.62;-9.80
-0.98;-1.96;-7.84;6.97;2.07;-12.96
3.05;-9.26;-6.21;8.60;18.95;-10.56
-0.98;5.23;0.98;3.81;18.19;1.52
3.05;0.44;-3.05;3.81;14.16;4.68
3.05;0.44;-0.54;-14.81;13.29;9.58
-0.98;-11.65;-2.18;3.81;5.23;13.61
3.05;-1.96;-2.18;6.21;10.89;-2.50
-0.11;-1.96;-1.42;-14.81;10.89;15.25
3.05;2.83;0.98;6.21;22.22;14.37
2.29;-1.96;1.85;-0.22;22.98;36.92
0.65;2.83;1.85;-4.25;10.89;23.30
-5.77;2.07;8.28;3.81;-0.44;11.98
1.42;-1.96;5.88;-7.51;-32.56;-10.56
-4.14;5.23;0.22;-9.15;-28.53;-9.80
-0.98;3.59;-2.18;-10.78;-20.47;-11.43
2.29;-6.86;-3.81;-3.48;-34.19;-11.43
2.29;-5.23;-2.18;-1.85;-12.52;-23.52
2.29;-2.83;-3.05;-1.85;-18.08;-21.02
3.05;-0.44;-3.81;-1.85;-20.47;-21.89
2.29;4.46;-4.57;-1.09;-20.47;-14.59
-4.14;-13.29;-6.21;2.18;-22.11;-23.52
3.05;0.44;10.67;-1.85;-18.08;-15.46
2.29;1.20;-7.08;2.18;-6.86;17.64
0.65;-2.83;-1.42;-1.09;10.89;2.29
-0.98;0.44;-2.18;6.97;-2.83;2.29
1.42;-1.96;-2.18;-5.88;9.26;16.01
-7.41;-22.11;-2.18;3.81;23.74;16.77
0.65;-1.96;-1.42;2.18;27.01;24.07
1.42;-1.96;-1.42;-1.09;27.01;7.19
-0.11;-1.96;5.01;0.54;22.98;-2.50
0.65;2.07;6.64;-6.75;34.30;27.33
2.29;5.23;3.48;-6.75;2.07;14.37
3.05;5.23;0.98;-2.72;-6.86;-0.11
3.05;-0.44;-0.54;-3.48;-11.65;-1.74
0.65;1.20;6.64;-1.85;-21.34;-10.56
0.65;5.23;-2.18;3.81;-18.95;9.58
-2.61;0.44;-2.18;8.60;-9.26;-5.77
0.65;-1.96;0.98;3.81;-7.62;-1.74
0.65;-5.99;-3.05;6.97;0.44;-12.96
2.29;1.20;-3.05;8.60;6.10;-12.20
-0.98;0.44;-2.18;6.97;9.26;-12.96
0.65;31.04;-3.05;23.09;5.23;-10.56
0.65;-2.83;-7.08;2.94;28.64;-4.90
3.05;31.04;-3.05;27.88;10.13;3.16
-4.14;1.20;-0.54;-9.15;-6.86;13.61
3.05;3.59;1.85;-1.09;17.32;20.80
3.92;5.23;3.48;2.94;18.19;36.15
2.29;-20.47;5.01;-6.75;15.68;17.64
0.65;5.23;1.85;8.60;10.13;14.37
1.42;4.46;6.64;0.54;6.86;20.80
2.29;-0.44;1.85;-3.48;-1.96;17.64
3.05;1.20;1.85;-8.28;22.22;6.32
0.65;-3.59;5.01;-10.78;-16.55;1.52
3.05;5.23;-4.57;-2.72;-14.92;-20.26
0.65;4.46;0.22;-1.85;5.23;-20.26
0.65;-0.44;-1.42;0.54;-9.26;-23.52
-8.17;18.19;-2.18;0.54;-7.62;-25.05
-0.98;0.44;-3.05;3.81;-0.44;-17.86
2.29;1.20;-2.18;6.97;-1.96;-17.86
-5.01;-0.44;-10.24;6.97;2.83;-14.59
-0.98;2.83;-2.18;7.84;9.26;-14.59
0.65;-0.44;-9.47;10.24;5.23;-5.77
3.05;-31.80;-3.81;2.94;7.62;-0.87
-3.38;5.23;18.73;0.54;-6.86;-9.80
-2.61;-4.36;0.22;-14.81;-12.52;11.22
0.65;-1.96;-4.57;-9.91;-20.47;-5.77
0.65;-2.83;-2.18;-10.78;-19.71;13.61
-5.01;-11.65;2.61;31.91;16.55;17.64
3.05;1.20;-1.42;-9.15;-9.26;15.25
0.65;2.83;0.22;-1.85;-2.83;6.32
3.92;0.44;3.48;-4.25;3.59;10.35
0.65;2.83;-1.42;1.31;5.23;4.68
3.05;1.20;1.85;3.81;6.10;-0.11
3.05;2.83;-0.54;3.81;5.23;-2.50
-2.61;-6.86;2.61;-4.25;14.16;-6.53
3.05;1.20;-1.42;6.97;5.23;-7.41
3.05;4.46;-0.54;6.21;10.89;-4.14
1.42;1.20;-11.11;2.94;4.46;16.77
3.05;-5.99;-1.42;2.94;5.23;-10.56
-2.61;-7.62;-2.18;-1.09;9.26;-0.11
1.42;-5.99;-6.21;6.97;10.13;-8.93
-1.74;-1.96;-2.18;36.81;14.16;-10.56
1.42;1.20;-2.18;10.24;26.24;-4.90
-2.61;-1.96;-7.08;1.31;2.83;0.65
1.42;1.20;-3.81;-1.85;5.23;6.32
-0.98;-3.59;-0.54;-25.26;3.59;14.37
1.42;4.46;0.98;-2.72;5.23;11.98
3.05;10.13;-2.18;-1.09;-1.96;13.61
3.92;-0.44;2.61;-1.09;-11.65;15.25
2.29;6.10;3.48;25.48;-6.86;15.25
-5.01;1.20;3.48;-4.25;6.10;22.43
-5.77;5.23;-2.18;1.31;9.26;11.22
3.05;4.46;5.88;-5.88;18.95;36.92
2.29;0.44;0.22;-1.85;18.95;-1.74
2.29;-5.99;-1.42;-1.09;7.62;-18.62
1.42;3.59;-4.57;-1.85;-3.59;-15.46
3.05;-1.96;-3.81;6.97;-10.02;-21.02
-0.11;2.83;-3.05;3.81;-24.50;-21.02
-0.98;-2.83;-10.24;3.81;-29.40;-18.62
-2.61;1.20;-3.05;6.97;-35.07;-17.86
3.05;-1.96;-2.18;2.18;-28.53;-17.86
3.05;1.20;-2.18;6.21;-20.47;-11.43
2.29;0.44;-1.42;-2.72;-19.71;-15.46
-4.14;-4.36;-3.81;-0.22;-14.92;-1.74
-4.14;4.46;-3.05;24.72;-29.40;6.32
1.42;6.86;-4.57;-6.75;3.59;11.22
-1.74;2.83;-2.18;2.18;8.49;11.22
0.65;1.20;-2.18;0.54;10.13;11.98
0.65;5.23;0.22;0.54;14.16;11.98
3.05;2.83;-12.63;-5.88;15.68;7.19
0.65;-3.59;-15.14;-3.48;17.32;17.64
1.42;4.46;-7.08;5.34;15.68;11.22
-3.38;4.46;5.88;3.81;5.23;1.52
1.42;5.23;61.42;-1.09;4.46;6.32
1.42;4.46;46.17;-1.09;1.20;-8.17
3.05;0.44;-3.05;9.37;2.07;-11.43
-4.14;4.46;-3.81;15.90;5.23;-10.56
0.65;-20.47;-9.47;2.18;5.23;-11.43
1.42;-3.59;-16.66;2.94;5.23;-8.17
-2.61;-14.92;-27.22;-1.09;6.86;-3.38
3.05;30.27;-27.22;-1.85;16.55;-10.56
3.05;-6.86;-14.27;11.00;17.32;-7.41
-1.74;-2.83;-25.59;6.21;6.10;-23.52
2.29;-5.99;-3.81;3.81;-3.59;4.68
3.05;5.23;2.61;5.34;-11.65;10.35
2.29;31.80;14.70;-1.85;-14.92;10.35
3.05;6.10;3.48;-0.22;-2.83;20.80
2.29;-2.83;3.48;-0.22;6.86;14.37
-0.98;-0.44;2.61;-2.72;5.23;4.68
1.42;1.20;2.61;-2.72;-5.23;7.19
-4.14;-2.83;3.48;-10.78;-22.98;13.61
-5.01;2.83;3.48;0.54;-14.92;10.35
2.29;-20.47;0.22;0.54;-16.55;-3.38
0.65;-1.96;-0.54;2.94;-1.96;-9.80
3.05;-7.62;1.85;1.31;-1.20;-19.49
3.92;4.46;-2.18;0.54;-7.62;-12.96
-0.11;3.59;0.22;2.18;-5.23;-10.56
2.29;2.07;-2.18;0.54;-1.20;-11.43
-4.14;0.44;-6.21;5.34;-2.83;-3.38
3.05;-10.02;13.07;6.21;4.46;-9.80
-0.11;-5.99;-6.21;-1.85;5.23;-11.43
5.44;-0.44;-6.21;2.18;6.86;-11.43
-0.98;28.64;-4.57;-17.21;15.68;1.52
3.05;0.44;-4.57;2.94;13.29;1.52
-0.98;-31.80;-5.44;-1.09;7.62;15.25
3.05;-9.26;0.22;2.94;-12.52;19.28
3.05;-1.96;2.61;6.21;5.23;22.43
2.29;-2.83;-0.54;-2.72;3.59;17.64
-4.14;1.20;-0.54;-0.22;-4.46;19.28
0.65;2.83;0.22;-1.85;-18.08;16.77
0.65;1.20;2.61;29.51;5.23;14.37
-0.98;0.44;1.85;-2.72;-6.86;9.58
-0.98;-0.44;1.85;-6.75;-8.49;-1.74
-0.11;5.23;0.98;-1.09;-3.59;-5.77
-0.98;-3.59;-0.54;-6.75;-3.59;-8.17
-0.11;3.59;-2.18;-9.15;-0.44;-12.20
-6.64;-2.83;-2.18;2.18;5.23;-12.20
1.42;-4.36;-7.08;-1.85;2.07;-13.83
-2.61;-11.65;-5.44;-1.85;7.62;-12.20
-4.14;-8.39;-26.35;6.97;5.23;-11.43
-4.14;0.44;-9.47;2.18;7.62;-15.46
2.29;-0.44;-4.57;1.31;-16.55;-10.56
1.42;-3.59;-4.57;-0.22;0.44;-0.87
-2.61;-2.83;-6.21;0.54;1.20;2.29
-1.74;-1.96;-3.81;2.18;-7.62;6.32
1.42;-0.44;0.22;6.97;-15.68;2.29
-0.98;2.83;2.61;-3.48;-6.86;12.74
18.40;3.59;1.85;-1.09;1.20;15.25
3.05;3.59;9.04;-4.25;10.89;12.74
4.68;5.23;5.01;-6.75;31.04;7.95
3.05;2.83;-0.54;-2.72;30.27;17.64
0.65;4.46;5.01;-4.25;10.89;16.77
1.42;0.44;6.64;-1.85;0.44;2.29
1.42;-10.02;6.64;-5.88;-7.62;0.65
2.29;5.23;2.61;2.18;-18.08;-9.80
3.05;-3.59;-1.42;-0.22;-15.68;-14.59
3.05;22.22;-2.18;-0.22;-10.02;-10.56
-0.98;-0.44;-4.57;6.21;-8.49;-8.93
2.29;-7.62;-11.11;3.81;-3.59;2.29
1.42;-3.59;-7.08;6.21;0.44;-9.80
2.29;1.20;-7.08;2.18;2.83;-12.20
-0.98;-1.96;-3.81;-22.00;3.59;-12.96
-0.98;-0.44;-3.81;13.39;5.23;-4.90
7.08;-2.83;-4.57;36.81;16.55;1.52
-2.61;-2.83;-2.18;2.94;19.71;4.68
1.42;-2.83;-1.42;-1.09;17.32;10.35
-2.61;-1.96;19.60;-2.72;13.29;16.01
-5.77;4.46;1.85;-1.09;9.26;14.37
1.42;-0.44;14.70;-0.22;6.86;2.29
-0.98;-1.96;8.28;-3.48;5.23;9.58
-0.98;1.20;2.61;-5.88;-5.23;-8.17
0.65;5.23;2.61;-2.72;-7.62;11.22
0.65;1.20;0.22;-2.72;-10.02;14.37
-1.74;5.23;1.85;11.00;1.20;-8.17
-1.74;10.89;-2.18;11.00;-13.29;-8.93
-3.38;2.83;3.48;4.57;-11.65;-10.56
1.42;2.83;-22.32;5.34;-7.62;-16.23
-0.98;-5.23;13.94;-0.22;-1.96;12.74
2.29;-0.44;-2.18;3.81;6.10;-10.56
1.42;3.59;-11.11;3.81;5.23;-5.77
3.05;-2.83;-3.05;2.94;5.23;-8.17
-2.61;-5.99;-6.21;8.60;5.23;-10.56
3.05;-2.83;-16.66;2.18;6.10;-3.38
1.42;1.20;-4.57;0.54;3.59;-0.11
-15.46;-0.44;0.98;9.37;5.23;3.92
1.42;-0.44;-2.18;-17.21;5.23;9.58
-0.98;0.44;-2.18;-5.88;5.23;12.74
3.05;17.32;-1.42;-4.25;5.23;11.22
2.29;-3.59;0.22;3.81;-3.59;9.58
1.42;4.46;-19.93;-1.85;5.23;8.71
0.65;5.23;1.85;-1.09;2.83;24.07
2.29;-5.23;-7.08;-5.88;2.83;28.10
1.42;2.83;-5.44;-0.22;5.23;11.22
0.65;5.23;-16.66;2.94;13.29;1.52
-0.98;-1.96;-13.50;-0.22;9.26;10.35
-0.98;2.83;-13.50;2.94;-5.23;-23.52
0.65;-1.96;-1.42;-5.88;-20.47;-11.43
0.65;4.46;50.20;9.37;-20.47;-12.96
3.05;-1.96;30.82;8.60;-14.92;-10.56
-0.98;0.44;3.48;2.94;-0.44;-11.43
4.68;-5.99;-9.47;-1.85;10.89;-12.20
-2.61;-5.99;-3.05;-0.22;18.19;-12.20
-0.98;-12.41;-7.08;2.18;27.77;-1.74
1.42;-5.23;6.64;-3.48;10.89;4.68
4.68;1.20;-4.57;-3.48;5.23;15.25
0.65;2.83;1.85;-3.48;0.44;10.35
0.65;5.23;-7.08;-0.22;-5.23;13.61
1.42;1.20;-11.87;-24.39;-20.47;11.22
0.65;0.44;-2.18;-0.22;-26.14;7.95
3.05;2.83;1.85;-26.03;-18.08;3.92
-4.14;-3.59;1.85;-30.06;-21.34;3.16
-1.74;4.46;-2.18;-0.22;-4.46;3.92
-4.14;1.20;1.85;-12.31;-2.83;-8.93
-0.98;0.44;16.33;-10.78;-4.46;-27.55
1.42;3.59;-0.54;-2.72;-4.46;-8.93
5.44;5.23;-27.99;-6.75;-0.44;-23.52
-0.11;1.20;-3.05;-1.85;8.49;-18.62
-1.74;1.20;-3.81;0.54;16.55;-18.62
1.42;-2.83;-3.81;-2.72;17.32;-4.90
-4.14;-17.32;-9.47;3.81;14.16;-10.56
2.29;2.83;-7.08;2.94;5.23;-19.49
3.05;6.10;-7.08;0.54;-10.89;-16.99
-4.14;-3.59;6.64;8.60;-10.89;-2.50
0.65;0.44;-3.05;-0.22;-18.08;0.65
0.65;1.20;-6.21;2.94;-7.62;3.92
0.65;5.23;19.60;1.31;2.83;13.61
-0.98;31.80;0.22;2.94;5.23;12.74
3.05;5.23;12.31;-1.09;11.65;40.95
2.29;5.23;5.88;16.66;5.23;17.64
-0.98;4.46;16.33;0.54;10.13;14.37
1.42;2.83;8.28;1.31;6.10;23.30
3.05;2.07;5.88;-2.72;4.46;11.22
3.92;2.83;2.61;-1.85;2.83;7.19
-0.98;-0.44;2.61;0.54;5.23;-1.74
3.05;1.20;5.88;-3.48;-9.26;-8.93
3.92;35.07;-1.42;2.94;-6.86;-11.43
2.29;2.07;-2.18;2.94;-10.02;-15.46
-0.98;-7.62;-2.18;2.94;-4.46;-11.43
2.29;-5.23;2.61;9.37;0.44;-12.20
0.65;0.44;-7.84;11.00;0.44;-10.56
1.42;-20.47;-2.18;6.97;-0.44;-9.80
-4.14;0.44;-2.18;-1.85;5.23;-6.53
-1.74;-6.86;-3.05;-9.91;5.23;-2.50
-1.74;-3.59;-3.05;-13.94;6.86;2.29
0.65;0.44;-2.18;-9.15;18.19;10.35
0.65;-1.96;-0.54;-5.12;7.62;-2.50
-0.11;5.23;0.22;-3.48;10.13;12.74
2.29;2.07;-1.42;-1.85;4.46;11.22
-1.74;3.59;0.22;-0.22;-5.99;12.74
3.05;27.01;1.85;11.00;-5.23;7.95
-4.14;-3.59;1.85;-1.09;-6.86;9.58
-5.01;-3.59;-3.05;2.18;-5.23;3.92
-0.11;-2.83;-1.42;2.94;-1.96;2.29
-5.01;5.23;0.22;2.18;-11.65;-6.53
3.05;2.83;1.85;-27.66;-15.68;-9.80
3.05;2.83;-2.18;-1.85;-9.26;-9.80
-1.74;-0.44;-22.32;0.54;-6.86;-15.46
1.42;10.13;-7.08;32.78;2.83;-11.43
0.65;-8.39;-9.47;-1.09;-22.98;-18.62
2.29;-16.44;-7.08;39.20;2.83;-9.80
-4.14;-5.99;-13.50;-0.22;5.23;-17.86
-5.77;-8.39;-9.47;3.81;5.23;-12.20
3.05;-5.23;-2.18;35.17;12.52;-6.53
3.05;9.26;6.64;0.54;18.95;2.29
3.05;39.86;13.94;0.54;10.13;6.32
-0.98;6.10;3.48;2.94;6.10;14.37
3.05;-6.86;0.22;2.18;4.46;16.77
1.42;-9.26;0.22;2.94;2.83;20.80
3.05;9.26;0.98;-1.85;-1.96;22.43
1.42;15.68;-2.18;-6.75;-8.49;20.04
2.29;-0.44;-0.54;5.34;6.10;23.30
-0.11;0.44;3.48;0.54;-0.44;7.95
3.05;-0.44;2.61;-1.09;-18.08;2.29
-0.98;3.59;-2.18;-1.85;-3.59;-4.90
1.42;31.04;0.22;36.81;-7.62;-12.20
-0.98;2.07;-2.18;-0.22;10.13;-14.59
-4.14;-0.44;-4.57;2.94;7.62;-18.62
0.65;-0.44;-6.21;-5.88;6.86;-21.89
0.65;0.44;-3.05;0.54;-18.95;-15.46
0.65;-2.83;-4.57;2.18;5.23;-17.86
2.29;-5.99;-3.05;3.81;7.62;-14.59
0.65;2.83;-2.18;3.81;-3.59;-9.80
-4.14;-1.96;-2.18;11.00;-16.55;0.65
-2.61;-0.44;-2.18;-1.85;-19.71;2.29
-1.74;-1.96;-26.35;-1.85;-18.08;12.74
2.29;1.20;-0.54;-1.85;-5.99;11.22
-0.98;-35.07;-2.18;-4.25;-3.59;12.74
-0.98;0.44;3.48;-6.75;5.23;3.92
2.29;2.83;3.48;1.31;6.10;22.43
-0.98;2.83;6.64;0.54;31.04;23.30
-4.14;1.20;5.88;-1.09;12.52;21.67
0.65;4.46;9.91;-1.09;14.92;13.61
1.42;1.20;5.01;-1.85;3.59;-1.74
3.05;2.83;-2.18;-1.85;-10.02;-23.52
2.29;-1.96;-1.42;-1.85;-4.46;-22.65
4.68;-2.83;-3.05;-2.72;-3.59;-22.65
-4.14;2.07;-1.42;5.34;-3.59;-40.40
1.42;-1.96;-3.05;2.18;-2.83;-10.56
-4.14;3.59;-15.90;-0.22;0.44;-15.46
-0.98;1.20;-9.47;7.84;2.83;-14.59
-1.74;2.83;-6.21;-2.72;5.23;-17.86
-8.17;-3.59;8.28;10.24;-4.46;-10.56
-5.77;-1.96;-19.93;-23.63;-7.62;-4.90
-0.98;-0.44;-20.69;3.81;-14.92;2.29
0.65;-1.96;-18.30;-19.60;-18.08;7.19
3.05;-5.99;-12.63;2.94;-8.49;15.25
0.65;4.46;2.61;0.54;1.20;17.64
3.05;2.07;43.67;2.18;9.26;20.80
3.05;6.86;49.33;6.97;22.22;20.04
3.05;0.44;10.67;-1.85;27.77;15.25
3.05;-3.59;-0.54;-10.78;26.24;19.28
-0.98;-1.96;-1.42;-4.25;13.29;12.74
3.05;-9.26;0.22;-1.85;-2.83;4.68
0.65;-6.86;-2.18;-4.25;-13.29;0.65
-1.74;-0.44;-2.18;2.18;-19.71;-6.53
-9.04;0.44;-2.18;-2.72;-18.08;-10.56
0.65;2.07;-19.93;-2.72;-18.08;2.29
-5.77;-3.59;-7.08;-1.09;-5.99;-40.40
-0.98;-0.44;-7.08;-14.81;-1.96;-16.23
2.29;2.07;23.63;-1.09;3.59;-16.99
-0.98;-1.96;-3.05;8.60;18.19;-19.49
-21.89;-1.96;-0.54;3.81;6.10;-23.52
3.05;-7.62;-6.21;5.34;10.13;-13.83
-5.01;-3.59;-1.42;2.94;14.16;-0.11
-0.11;-2.83;-4.57;-1.85;14.16;-0.11
-5.01;-3.59;-11.11;-1.85;12.52;11.22
2.29;2.83;-15.90;2.18;5.23;7.95
0.65;-1.96;-1.42;6.97;0.44;15.25
3.05;-0.44;0.22;-5.88;-7.62;19.28
-4.14;5.23;2.61;-1.09;1.20;9.58
1.42;-3.59;7.51;-5.88;-9.26;17.64
2.29;3.59;23.63;-3.48;-9.26;12.74
-1.74;2.83;23.63;-1.85;-5.23;1.52
0.65;2.07;0.22;-3.48;2.83;3.92
31.25;38.33;-0.54;12.63;5.23;-10.56
-1.74;2.83;-2.18;8.60;5.23;-7.41
1.42;3.59;-3.81;6.21;5.23;-11.43
0.65;0.44;-3.81;-1.09;-5.99;-12.20
-2.61;-0.44;-15.14;2.18;6.10;-14.59
3.05;-2.83;11.54;-1.09;6.10;-10.56
-0.98;-5.23;0.22;0.54;6.86;-12.20
-1.74;-0.44;-2.18;6.97;6.10;-11.43
3.05;2.83;-2.18;6.97;-1.96;-8.17
-2.61;-3.59;-4.57;5.34;-5.99;-3.38
-23.52;2.07;-2.18;1.31;-5.23;4.68
3.05;2.83;-0.54;-1.09;-31.04;11.22
-0.98;-12.41;-0.54;-6.75;-15.68;11.98
1.42;-3.59;3.48;-4.25;-19.71;14.37
-0.98;-5.23;-2.18;-4.25;-12.52;16.01
2.29;-3.59;-9.47;-10.78;-6.86;14.37
2.29;-3.59;5.88;-7.51;-5.99;26.46
-1.74;-1.96;5.01;-3.48;-1.96;13.61
-2.61;-6.86;-0.54;-1.09;2.83;2.29
-0.98;-3.59;3.48;-1.09;7.62;-9.80
0.65;-0.44;2.61;1.31;10.89;-3.38
-4.14;-0.44;-0.54;-23.63;18.19;-13.83
3.05;-2.83;-6.21;8.60;9.26;-14.59
-0.11;-5.99;-10.24;0.54;7.62;4.68
-1.74;-2.83;1.85;-1.09;5.23;-12.20
-1.74;-7.62;-7.08;3.81;2.83;-8.93
2.29;-2.83;-9.47;-1.85;2.83;-12.96
2.29;5.23;-11.11;2.18;-0.44;-12.20
3.05;5.23;-4.57;2.94;-1.96;-6.53
1.42;-3.59;-2.18;0.54;-6.86;0.65
-0.98;-4.36;-2.18;11.87;-5.99;2.29
-1.74;1.20;-2.18;-1.09;-6.86;9.58
-5.01;-7.62;-1.42;-2.72;-10.02;2.29
1.42;-1.20;-1.42;-1.85;-5.99;2.29
-4.14;17.32;3.48;7.84;6.86;12.74
-0.98;31.80;6.64;11.00;8.49;17.64
3.05;-0.44;-12.63;-0.22;4.46;22.43
3.05;2.83;5.01;-9.15;-5.99;17.64
2.29;-1.96;7.51;-7.51;-15.68;11.22
3.05;0.44;5.88;-7.51;-5.99;3.16
1.42;-20.47;-1.42;-0.22;-1.96;1.52
2.29;2.83;-5.44;-4.25;7.62;-9.80
-1.74;2.83;-3.05;-1.85;17.32;-6.53
3.05;1.20;-7.84;-4.25;20.58;-24.28
-1.74;-1.96;-6.21;1.31;18.95;-9.80
2.29;1.20;-3.81;2.94;11.65;-10.56
-1.74;3.59;-7.08;1.31;5.23;-12.96
0.65;-5.23;-7.08;6.21;5.23;-21.02
2.29;-0.44;-3.81;0.54;-6.86;-22.65
0.65;-6.86;-2.18;-0.22;-7.62;-8.93
1.42;-1.96;-11.11;2.18;-12.52;2.29
-1.74;-1.96;1.85;-1.85;-9.26;17.64
-5.01;-5.99;-2.18;0.54;-8.49;3.16
-1.74;2.83;-2.18;-0.22;-16.55;9.58
2.29;0.44;1.85;-1.09;6.86;11.22
-1.74;-3.59;-0.54;-17.21;-11.65;17.64
3.05;-0.44;2.61;-4.25;-15.68;20.80
3.05;-7.62;6.64;-1.85;-10.02;14.37
3.05;0.44;-15.90;-5.12;4.46;2.29
-2.61;0.44;2.61;-2.72;13.29;2.29
-1.74;-5.23;0.98;2.18;17.32;-6.53
-0.98;-0.44;-2.18;1.31;16.55;-17.86
-0.11;-0.44;-3.05;13.39;10.89;-12.96
-0.98;-5.23;-2.18;-2.72;9.26;-11.43
3.05;-2.83;-3.81;-1.09;2.07;-4.90
-0.98;-3.59;-3.05;4.57;33.43;-8.93
2.29;-5.23;-6.21;11.00;5.23;-10.56
0.65;1.20;-2.18;3.81;4.46;-5.77
-0.98;0.44;-3.05;3.81;12.52;-4.90
-5.77;-1.96;-3.05;-9.15;10.13;2.29
-5.01;-18.95;-2.18;6.21;6.10;2.29
1.42;4.46;-1.42;-1.09;4.46;12.74
2.29;-3.59;-1.42;2.94;4.46;3.92
-5.77;18.19;-0.54;-33.32;-8.49;10.35
-0.11;-1.96;-1.42;-1.85;-22.11;35.39
2.29;4.46;0.22;-1.85;-34.19;12.74
3.92;12.52;9.04;-3.48;-46.28;14.37
4.68;-1.96;7.51;-1.09;-34.19;16.01
3.05;-7.62;5.88;25.48;-19.71;3.16
-2.61;-1.96;1.85;-1.85;-3.59;-0.11
-4.14;5.23;0.22;-26.03;10.13;-4.90
2.29;1.20;-2.18;-6.75;15.68;-6.53
-2.61;-6.86;-4.57;10.24;13.29;-8.17
0.65;5.23;-3.05;-0.22;14.16;-8.93
3.05;-2.83;-3.81;3.81;18.19;-4.90
1.42;-3.59;15.57;6.21;19.71;-1.74
3.05;-1.96;-3.05;2.18;17.32;-12.96
3.05;1.20;-6.21;8.60;22.22;-12.20
3.05;4.46;-19.93;-25.26;16.55;-8.17
2.29;1.20;-19.17;-0.22;-14.92;1.52
-5.01;-9.26;-17.53;-1.09;4.46;3.16
-4.14;-8.39;-15.90;-28.42;-3.59;6.32
2.29;1.20;1.85;6.97;-6.86;10.35
2.29;-22.98;49.33;-2.72;-19.71;6.32
-4.14;5.23;49.33;-11.54;-12.52;6.32
-4.14;-1.96;8.28;-10.78;-12.52;7.95
-0.98;-3.59;-27.99;-13.94;-13.29;16.01
-2.61;-1.20;8.28;-9.91;-11.65;1.52
-1.74;-1.96;-3.05;-11.54;-6.86;5.55
3.05;2.83;-2.18;-4.25;-6.86;1.52
-4.14;0.44;-2.18;-1.85;-9.26;-4.90
-2.61;-2.83;-7.08;-1.85;-1.96;-12.96
-4.14;-1.96;-20.69;-1.85;-0.44;-12.20
0.65;3.59;-12.63;8.60;-1.96;-9.80
-0.98;-1.96;-6.21;11.00;10.89;-0.87
3.05;0.44;-4.57;11.87;16.55;-21.02
-0.98;18.95;-9.47;30.38;17.32;-6.53
3.05;-5.23;5.01;11.00;15.68;-7.41
0.65;1.20;-4.57;3.81;6.86;0.65
2.29;4.46;-1.42;-30.06;4.46;3.16
3.05;1.20;-2.18;-5.88;4.46;7.19
-0.98;0.44;-2.18;-5.88;1.20;9.58
0.65;-2.83;1.85;-10.78;-4.46;13.61
-2.61;-2.83;-2.18;-3.48;-8.49;11.22
-0.11;5.23;1.85;-7.51;-11.65;10.35
2.29;5.23;-2.18;-3.48;-18.08;-22.65
2.29;2.83;6.64;-9.91;-14.92;7.19
-1.74;4.46;5.88;1.31;-2.83;8.71
-4.14;2.83;0.22;6.21;7.62;3.92
-4.14;1.20;-2.18;11.00;22.22;-1.74
1.42;7.62;5.88;2.18;18.19;0.65
-1.74;5.23;2.61;-3.48;1.20;-9.80
-0.98;3.59;-1.42;0.54;-11.65;-6.53
-0.98;-1.96;-2.18;-1.85;-20.47;-3.38
2.29;28.64;-6.21;3.81;-13.29;-9.80
1.42;-0.44;-6.21;-6.75;-5.99;-4.90
1.42;-5.99;-7.08;-2.72;-5.23;-17.86
3.05;-2.83;-2.18;-5.88;-5.23;-20.26
1.42;-1.96;-3.05;-1.85;3.59;-12.96
-5.01;0.44;-2.18;-1.85;4.46;-6.53
3.05;-1.96;-2.18;0.54;1.20;1.52
-0.11;-1.96;0.22;3.81;2.07;3.92
-5.01;-5.23;0.22;-1.09;-3.59;2.29
2.29;2.83;6.64;-1.85;-12.52;7.19
-4.14;-1.96;3.48;-14.81;-5.99;11.22
1.42;-5.99;0.22;-1.85;5.23;13.61
3.05;-3.59;-3.81;-1.85;26.24;20.80
-0.98;-0.44;-3.81;-0.22;6.10;22.43
-0.98;3.59;-2.18;-2.72;6.86;7.95
3.05;5.23;8.28;11.87;-3.59;3.16
5.44;6.86;5.88;12.63;-23.74;-1.74
3.05;-10.02;-0.54;18.30;-16.55;-7.41
-2.61;-3.59;-2.18;-1.09;-13.29;-9.80
2.29;-3.59;-27.99;8.60;-5.99;-9.80
-2.61;-5.99;-10.24;3.81;-5.99;-9.80
-0.98;-8.39;-7.08;23.96;12.52;-5.77
-2.61;-5.23;-11.11;-26.90;14.92;-14.59
-20.26;-6.86;-6.21;16.66;16.55;-18.62
0.65;-1.20;0.22;5.34;10.89;-10.56
3.05;10.13;9.91;2.94;16.55;2.29
3.05;30.27;11.54;0.54;9.26;5.55
-0.11;4.46;-1.42;2.94;8.49;9.58
-5.01;1.20;8.28;-1.85;5.23;12.74
1.42;-2.83;-2.18;-1.85;1.20;-10.56
1.42;2.83;-3.05;-1.09;-1.96;15.25
-0.98;2.83;-2.18;2.18;1.20;20.04
1.42;-3.59;-0.54;-1.85;-5.99;22.43
1.42;-1.96;1.85;3.81;0.44;13.61
-0.11;-5.99;2.61;-1.09;0.44;32.89
3.05;5.23;-0.54;6.97;-6.86;-4.14
-1.74;0.44;0.22;-5.12;5.23;-4.90
1.42;30.27;-2.18;-5.88;5.23;-12.96
-0.98;-1.96;-6.21;-0.22;4.46;-21.02
-0.11;-4.36;-2.18;3.81;-29.40;-17.86
-1.74;-0.44;-2.18;1.31;-2.83;-23.52
-0.11;2.83;-3.05;3.81;-6.86;-8.93
-4.14;-2.83;-5.44;5.34;-13.29;-19.49
-1.74;-2.83;-2.18;10.24;-1.96;-12.20
0.65;-6.86;-2.18;-2.72;-9.26;-4.90
0.65;-0.44;-2.18;2.94;5.23;-21.89
3.05;0.44;-14.27;-4.25;9.26;25.70
3.05;2.07;-2.18;-5.88;29.40;12.74
-1.74;-5.23;-2.18;-28.42;31.04;16.01
1.42;-4.36;-0.54;11.87;29.40;16.01
0.65;5.23;-0.54;6.21;9.26;13.61
1.42;1.20;-13.50;-3.48;-7.62;15.25
3.92;5.23;0.22;2.94;-13.29;17.64
-0.98;5.23;3.48;-1.09;-11.65;23.30
-0.11;5.23;5.88;24.72;-20.47;3.92
-0.11;30.27;1.85;-30.06;-14.92;0.65
0.65;1.20;5.01;-3.48;-13.29;-5.77
0.65;4.46;1.85;-0.22;-19.71;-12.20
-0.98;-1.96;-2.18;-2.72;-18.95;-23.52
1.42;-1.96;28.42;-4.25;-20.47;-14.59
-1.74;-1.96;-2.18;6.21;-17.32;-19.49
3.92;1.20;-6.21;-0.22;-10.02;-21.02
-4.14;-1.96;-2.18;-0.22;-3.59;-23.52
26.46;29.40;-11.11;-1.09;-3.59;-28.31
2.29;-6.86;-6.21;-1.85;2.07;-25.05
-0.98;3.59;-11.11;-9.91;8.49;-8.93
0.65;-2.83;-4.57;-1.85;13.29;2.29
-0.11;1.20;-3.81;0.54;10.13;11.98
2.29;-0.44;0.22;-13.94;27.77;19.28
-1.74;6.10;-2.18;-2.72;10.13;23.30
3.05;-1.20;1.85;-0.22;9.26;27.33
-13.83;-1.96;2.61;3.81;13.29;16.01
3.05;2.83;-2.18;-1.09;7.62;28.10
-1.74;1.20;5.01;-1.85;-1.96;20.04
3.05;0.44;5.88;-4.25;-0.44;7.95
-0.98;4.46;-2.18;-0.22;4.46;2.29
0.65;-0.44;-10.24;2.18;0.44;5.55
1.42;2.07;-7.08;2.18;-1.96;-7.41
-0.98;4.46;-2.18;6.21;1.20;-10.56
-5.77;-0.44;-24.72;9.37;9.26;-9.80
-4.14;-2.83;-4.57;7.84;12.52;-17.86
3.05;5.23;-2.18;11.87;10.89;-9.80
5.44;0.44;3.48;3.81;5.23;-16.23
3.05;-1.96;-9.47;6.21;5.23;-21.89
3.05;-2.83;-3.05;-5.88;-5.99;-5.77
2.29;-0.44;-3.05;-9.15;-10.02;-28.31
2.29;1.20;-3.05;-5.88;-19.71;-3.38
1.42;31.04;-0.54;31.15;-18.08;7.95
2.29;-3.59;3.48;27.88;-14.92;6.32
-2.61;-26.14;5.88;-1.85;-2.83;10.35
1.42;-27.77;2.61;-1.85;-8.49;14.37
4.68;3.59;0.22;-1.09;-11.65;17.64
2.29;-0.44;-2.18;5.34;-9.26;33.76
-0.98;2.07;6.64;10.24;-3.59;19.28
-0.98;20.58;-6.21;3.81;7.62;7.19
-2.61;2.83;-18.30;-1.85;3.59;1.52
-0.98;-0.44;-15.90;-1.09;-1.96;-2.50
0.65;-5.23;-32.02;-1.85;-3.59;-18.62
-0.98;-0.44;-15.14;-10.78;-6.86;-14.59
-2.61;1.20;-0.54;3.81;-6.86;-14.59
2.29;-1.96;60.66;2.94;-5.99;-15.46
-5.77;-8.39;9.91;-1.85;-5.23;-15.46
1.42;-7.62;-2.18;-2.72;-1.96;-17.86
-5.77;-5.23;-9.47;0.54;-5.23;-13.83
0.65;-2.83;-12.63;-33.32;14.16;-4.90
3.05;-5.23;-6.21;8.60;13.29;2.29
-3.38;2.83;-11.11;11.00;14.16;7.95
0.65;-7.62;-2.18;2.94;10.89;6.32
3.05;1.20;-1.42;3.81;15.68;11.22
-0.98;-1.96;-0.54;-1.85;9.26;20.04
3.05;-3.59;-2.18;-13.94;-1.96;15.25
3.05;3.59;2.61;-4.25;6.10;7.95
1.42;5.23;2.61;-3.48;5.23;22.43
3.05;5.23;0.22;36.81;-1.96;17.64
-0.98;5.23;0.22;0.54;-5.99;2.29
1.42;3.59;-3.05;1.31;-5.99;7.95
-0.11;2.83;-1.42;0.54;-10.02;-9.80
-1.74;1.20;-3.05;2.94;-7.62;-10.56
-0.98;3.59;-2.18;2.18;-3.59;-14.59
-1.74;-5.23;-5.44;19.93;-7.62;-14.59
1.42;15.68;-7.84;11.00;-5.99;-10.56
3.05;-1.96;-3.05;-14.81;0.44;-12.96
2.29;-4.36;-4.57;3.81;-5.23;-12.20
0.65;0.44;-1.42;1.31;4.46;-11.43
-0.98;4.46;-4.57;8.60;5.23;-17.86
-1.74;-1.96;13.07;2.18;8.49;2.29
-0.11;-2.83;-1.42;-1.85;2.83;4.68
0.65;-3.59;-1.42;-0.22;5.23;9.58
-1.74;-5.23;-2.18;-4.25;6.10;-6.53
3.05;-1.96;-1.42;6.21;22.22;18.40
3.05;5.23;6.64;27.88;6.10;11.22
-6.64;1.20;2.61;0.54;5.23;29.73
3.05;2.83;5.01;-1.09;2.83;13.61
-7.41;-3.59;-9.47;-4.25;-16.55;16.77
3.05;2.83;-10.24;-1.85;-13.29;-11.43
0.65;4.46;2.61;3.81;-14.92;2.29
0.65;3.59;5.88;-1.09;-10.89;-6.53
-0.98;0.44;0.22;-1.09;-8.49;-9.80
3.05;1.20;-3.05;-1.09;-5.99;-17.86
-0.11;-1.96;-6.21;-1.85;-8.49;-12.20
1.42;-0.44;-7.08;3.81;-14.92;-14.59
3.05;-5.23;-4.57;23.96;-12.52;-14.59
1.42;-1.96;-2.18;4.57;-10.02;-15.46
-0.98;4.46;-4.57;1.31;-5.23;-49.22
-0.98;-5.23;-26.35;5.34;-1.96;-10.56
2.29;-5.23;-7.08;-1.09;2.83;-3.38
3.92;-2.83;-15.90;-3.48;9.26;3.92
-0.11;3.59;-5.44;1.31;7.62;13.61
0.65;-2.83;0.22;-2.72;5.23;14.37
3.05;2.83;-0.54;5.34;10.13;14.37
-3.38;-1.96;3.48;-0.22;-0.44;23.30
0.65;-1.96;8.28;6.21;18.19;19.28
3.05;-23.74;6.64;0.54;18.95;26.46
-2.61;2.83;5.88;-3.48;17.32;19.28
3.05;2.83;7.51;-3.48;7.62;-0.11
2.29;2.07;-2.18;-1.85;2.83;0.65
3.05;5.23;-1.42;-1.09;-16.55;-11.43
1.42;5.23;0.22;2.94;-24.50;-13.83
4.68;2.83;-12.63;-1.85;-27.77;-31.58
3.05;-2.83;-2.18;0.54;-25.37;-21.02
-1.74;-3.59;-4.57;-4.25;-20.47;-23.52
0.65;-5.23;-2.18;-1.09;-9.26;-19.49
-0.98;7.62;-3.05;-1.85;2.83;-19.49
1.42;-5.23;-4.57;6.97;-2.83;-31.58
-0.11;-1.96;-4.57;2.94;-3.59;-11.43
-0.98;0.44;-1.42;4.57;-1.96;24.07
2.29;-1.96;-3.81;-15.57;0.44;3.92
0.65;0.44;0.22;0.54;22.98;16.01
0.65;-1.96;1.85;9.37;4.46;13.61
2.29;-0.44;-0.54;2.94;7.62;16.77
0.65;2.83;0.98;2.18;20.58;20.04
3.05;-0.44;5.88;-1.85;28.64;23.30
3.05;0.44;2.61;-0.22;14.16;24.07
2.29;-9.26;3.48;-9.91;18.95;17.64
1.42;5.23;5.01;-2.72;10.13;5.55
3.05;4.46;6.64;2.18;8.49;0.65
0.65;23.74;3.48;-1.85;5.23;-2.50
2.29;2.83;-2.18;-1.09;-1.96;-11.43
3.05;2.83;-1.42;2.18;-5.23;-8.17
1.42;-5.99;-2.18;0.54;-14.92;-8.93
3.05;-1.96;-7.84;6.97;-10.02;-10.56
-0.98;-1.96;-7.08;15.90;5.23;-8.93
3.05;-4.36;-10.24;3.81;-18.08;-31.58
2.29;-5.23;-3.05;-0.22;-2.83;-14.59
0.65;-1.96;-15.90;2.18;8.49;-26.68
3.05;0.44;-2.18;3.81;14.16;0.65
-5.77;31.04;-3.81;-2.72;6.10;2.29
3.05;-1.96;-1.42;-6.75;-27.77;4.68
1.42;2.07;5.88;-1.09;-38.22;11.22
-2.61;0.44;-1.42;-10.78;-33.43;3.16
-0.11;3.59;2.61;-3.48;-15.68;7.95
-4.14;-3.59;-0.54;-2.72;0.44;7.19
-4.14;-5.99;6.64;-1.85;6.86;20.80
2.29;2.07;7.51;-1.09;13.29;17.64
2.29;1.20;5.88;-5.12;10.13;14.37
-2.61;-1.96;5.01;-0.22;10.13;2.29
3.05;1.20;0.22;2.94;7.62;-1.74
0.65;-5.99;1.85;-1.09;6.86;-9.80
2.29;1.20;-2.18;2.94;4.46;-10.56
-2.61;-5.23;-2.18;6.21;6.10;-10.56
3.05;3.59;-5.44;6.21;7.62;-8.17
1.42;-1.20;-11.11;9.37;6.86;-10.56
-5.01;-1.96;-9.47;2.94;9.26;-11.43
3.05;-1.96;-6.21;0.54;9.26;-21.89
2.29;-3.59;-1.42;9.37;5.23;-10.56
3.05;0.44;-0.54;2.18;7.62;2.29
2.29;6.86;1.85;2.94;5.23;2.29
3.05;-2.83;0.22;0.54;5.23;7.19
2.29;-3.59;-1.42;-3.48;2.07;11.22
1.42;-0.44;-2.18;22.32;1.20;16.77
3.05;-2.83;4.25;-2.72;-1.96;17.64
3.05;2.83;2.61;2.18;-1.96;17.64
3.05;3.59;0.22;-5.88;-8.49;23.30
0.65;1.20;3.48;-1.85;-8.49;9.58
-0.98;-0.44;0.22;-5.88;-1.96;19.28
-1.74;32.67;-1.42;-2.72;5.23;1.52
0.65;3.59;3.48;10.24;8.49;-1.74
3.05;-0.44;-3.05;0.54;6.10;-27.55
-4.14;4.46;3.48;-2.72;5.23;-8.17
0.65;0.44;-3.81;-1.09;0.44;-11.43
3.05;-1.96;-5.44;11.87;-3.59;-10.56
3.05;2.83;-13.50;-4.25;-8.49;-6.53
-0.98;-6.86;-3.81;2.94;9.26;-12.96
1.42;0.44;-12.63;-1.09;-7.62;-12.20
0.65;-21.34;-7.08;2.18;-11.65;-14.59
-4.14;-1.96;-4.57;36.81;-16.55;-6.53
-1.74;1.20;-2.18;-1.85;-3.59;2.29
-0.98;-3.59;-2.18;-3.48;-5.23;3.16
0.65;-1.96;-2.18;-1.09;5.23;7.95
-1.74;0.44;15.57;2.18;14.16;3.16
-0.11;-1.96;1.85;-1.09;10.89;7.95
0.65;4.46;5.01;10.24;28.64;10.35
4.68;-16.44;8.28;11.00;5.23;14.37
1.42;3.59;3.48;-2.72;-6.86;17.64
3.05;-5.99;5.01;-2.72;-18.08;10.35
3.05;4.46;5.01;-4.25;-28.53;3.92
3.05;-9.26;3.48;-1.09;-22.11;-0.11
3.05;2.83;2.61;3.81;-18.08;6.32
0.65;-0.44;2.61;-16.33;-24.50;-10.56
0.65;0.44;-10.24;1.31;10.13;-19.49
3.05;-1.96;-20.69;11.00;17.32;-9.80
-0.98;-1.96;-27.99;6.21;18.95;-6.53
-0.98;-5.99;-27.99;2.18;7.62;-10.56
0.65;-8.39;-16.66;-0.22;5.23;-12.20
0.65;-6.86;23.63;-1.85;5.23;-6.53
1.42;-2.83;63.05;-9.15;16.55;28.10
1.42;-2.83;13.07;-9.91;13.29;11.22
-0.11;-4.36;-3.05;-9.15;16.55;7.95
-0.11;9.26;-4.57;-17.97;17.32;14.37
-1.74;-0.44;-3.05;-1.85;13.29;8.71
-5.01;20.58;-1.42;-13.18;-8.49;15.25
0.65;-5.23;3.48;2.94;-5.99;15.25
2.29;31.04;1.85;0.54;-5.23;16.01
3.05;0.44;0.22;6.97;-16.55;32.13
3.05;4.46;1.85;3.81;-23.74;3.16
1.42;3.59;0.22;0.54;-26.14;-5.77
2.29;-27.77;-2.18;-1.85;-23.74;12.74
1.42;-10.02;-4.57;-13.18;-19.71;-13.83
0.65;-1.96;-4.57;0.54;-13.29;-14.59
2.29;-0.44;-7.84;6.97;-11.65;-17.86
0.65;0.44;-6.21;-1.09;-6.86;-8.93
-2.61;-3.59;-9.47;3.81;0.44;-8.93
-2.61;0.44;-9.47;2.94;2.83;-14.59
1.42;0.44;-6.21;-1.09;10.13;-10.56
1.42;27.77;-3.81;35.94;17.32;-4.90
1.42;-5.23;-27.22;1.31;19.71;27.33
-5.01;-3.59;-2.18;-0.22;10.13;3.92
-2.61;-20.47;-2.18;2.94;10.13;13.61
-0.11;1.20;-19.93;-1.85;9.26;17.64
3.05;-1.96;-1.42;2.94;5.23;15.25
0.65;-3.59;1.85;37.57;18.19;16.77
3.05;5.23;3.48;-1.85;4.46;20.80
3.05;-6.86;0.22;-25.26;4.46;10.35
-0.98;2.83;0.22;-1.85;4.46;10.35
0.65;3.59;5.01;0.54;-1.96;10.35
0.65;13.29;-2.18;11.00;-2.83;0.65
3.05;1.20;1.85;6.21;-5.99;-6.53
1.42;-1.96;5.01;-1.09;-6.86;20.80
-3.38;-1.96;-1.42;5.34;1.20;2.29
0.65;-5.23;-9.47;8.60;5.23;-19.49
0.65;5.23;-3.81;11.00;0.44;-5.77
2.29;0.44;-9.47;0.54;5.23;-6.53
3.05;-7.62;-5.44;12.63;1.20;-10.56
3.05;-20.47;-7.08;-22.00;5.23;-12.20
1.42;-5.23;-4.57;2.18;6.10;-11.43
0.65;-1.96;-3.05;2.18;9.26;0.65
3.05;2.83;1.85;6.97;23.74;27.33
-0.98;-7.62;0.22;-0.22;5.23;10.35
-0.11;-3.59;3.48;-2.72;3.59;13.61
2.29;3.59;10.67;-1.85;-2.83;9.58
-1.74;4.46;9.91;-4.25;-3.59;11.22
3.05;0.44;0.22;-1.85;-6.86;6.32
3.05;5.23;0.22;2.94;2.83;12.74
1.42;-24.50;1.85;-9.15;-5.23;14.37
3.05;-1.96;2.61;-2.72;0.44;3.16
-1.74;5.23;2.61;-3.48;1.20;-0.11
0.65;5.23;0.22;2.18;2.83;-4.90
-2.61;1.20;-2.18;11.00;-3.59;-10.56
-0.98;-3.59;0.22;1.31;-0.44;-34.74
-0.98;0.44;-3.81;4.57;0.44;3.16
-1.74;-2.83;-4.57;5.34;-5.23;-2.50
-1.74;-5.23;-6.21;11.87;4.46;-4.90
1.42;-0.44;-6.21;5.34;5.23;-10.56
-3.38;-1.96;-3.05;5.34;6.86;-16.23
-0.98;-3.59;-5.44;29.51;12.52;-6.53
3.92;-5.23;-4.57;3.81;25.37;-15.46
1.42;-7.62;-4.57;-1.09;22.22;9.58
3.05;-3.59;-2.18;-16.33;15.68;10.35
3.05;-2.83;10.67;-3.48;-1.96;12.74
2.29;19.71;3.48;-5.88;-20.47;14.37
3.05;-1.96;5.01;-4.25;-22.11;10.35
-1.74;-5.23;3.48;-1.09;-26.14;10.35
0.65;31.04;0.22;-0.22;-24.50;16.01
0.65;43.12;5.01;-1.85;-29.40;3.92
-0.98;3.59;1.85;-0.22;-27.77;-1.74
-1.74;1.20;1.85;-2.72;-18.08;-2.50
2.29;2.07;3.48;-0.22;0.44;-9.80
-1.74;2.83;0.22;2.94;5.23;-17.86
-1.74;-1.96;-3.81;2.18;14.16;-15.46
0.65;-1.96;-2.18;1.31;15.68;-16.23
0.65;-9.26;-7.08;11.00;19.71;-11.43
-0.98;-2.83;-3.81;3.81;16.55;2.29
0.65;-6.86;-3.81;1.31;6.86;-9.80
3.05;0.44;-6.21;4.57;7.62;-8.17
0.65;4.46;-3.81;10.24;5.23;1.52
2.29;-22.98;-2.18;0.54;3.59;2.29
-0.98;-3.59;-3.05;-3.48;5.23;3.16
-2.61;4.46;-3.05;-2.72;2.83;7.19
-0.98;15.68;-1.42;-15.57;16.55;4.68
-4.14;-2.83;-1.42;-2.72;3.59;16.77
3.05;2.83;2.61;11.00;3.59;24.07
3.92;3.59;2.61;-1.85;1.20;26.46
-2.61;2.07;5.01;-2.72;5.23;16.01
1.42;2.83;3.48;-1.09;8.49;16.01
-4.14;4.46;9.91;3.81;10.13;13.61
1.42;5.23;-0.54;-5.12;8.49;5.55
3.05;-6.86;-1.42;1.31;5.23;-5.77
3.05;2.83;0.98;-13.18;-4.46;-12.20
0.65;-1.20;-4.57;-1.85;-5.23;-16.23
-1.74;1.20;-2.18;0.54;-14.05;-21.89
3.05;20.58;-3.05;-0.22;-20.47;-23.52
0.65;0.44;-7.08;0.54;-0.44;-17.86
1.42;-4.36;-12.63;1.31;-20.47;-23.52
1.42;1.20;15.57;-2.72;-21.34;-25.92
-4.14;-5.23;-3.05;-1.85;-15.68;3.92
-0.98;1.20;-3.05;-3.48;-9.26;-2.50
0.65;-5.99;14.70;2.18;4.46;3.92
-2.61;-7.62;-2.18;2.94;10.13;14.37
-4.14;-0.44;0.98;2.94;18.95;16.77
0.65;0.44;0.98;-1.09;6.86;20.04
0.65;4.46;7.51;-4.25;19.71;19.28
3.05;30.27;0.22;-1.09;22.22;17.64
3.05;5.23;3.48;4.57;20.58;17.64
0.65;0.44;8.28;6.97;-2.83;16.77
-0.98;2.83;6.64;0.54;8.49;-3.38
-2.61;14.92;5.01;-1.85;-1.96;2.29
4.68;-0.44;-25.59;-1.85;-14.92;0.65
3.05;6.10;1.85;2.94;5.23;-9.80
-0.98;3.59;0.22;-0.22;-20.47;-12.96
-2.61;12.52;-4.57;-0.22;-19.71;-11.43
-7.41;26.24;-7.08;-1.85;-6.86;-11.43
-4.14;-0.44;-6.21;9.37;4.46;-8.93
-4.14;-1.96;-5.44;0.54;14.16;-10.56
-1.74;-3.59;9.04;-1.85;5.23;-24.28
-5.77;-3.59;-3.05;-1.09;-2.83;-5.77
2.29;0.44;-2.18;-3.48;-20.47;2.29
1.42;3.59;24.39;-5.12;-3.59;2.29
1.42;5.23;-2.18;-5.88;-1.96;36.92
-0.11;0.44;0.22;-9.15;-1.96;1.52
-1.74;-22.98;5.01;6.21;2.83;11.22
-0.98;-0.44;5.88;23.09;17.32;6.32
3.05;-18.08;3.48;2.94;14.16;7.95
3.05;1.20;3.48;1.31;17.32;11.22
-5.01;39.86;0.22;-5.88;6.86;15.25
3.05;0.44;0.98;-1.85;-5.23;2.29
-5.77;-2.83;2.61;-2.72;-21.34;-2.50
-1.74;10.89;1.85;-5.88;-32.56;-4.90
0.65;4.46;24.39;-3.48;-31.04;-6.53
-4.14;1.20;-0.54;-3.48;-20.47;-31.58
-1.74;0.44;-7.84;-3.48;-11.65;-0.11
0.65;0.44;-4.57;2.94;5.23;-9.80
-0.98;-0.44;-2.18;-1.85;15.68;-11.43
-7.41;-5.23;-2.18;10.24;22.22;-17.86
-0.98;-1.96;-6.21;-1.85;25.37;-17.86
2.29;5.23;-5.44;5.34;17.32;-14.59
2.29;-1.96;-17.53;-0.22;4.46;-11.43
-0.98;4.46;-53.80;2.94;-12.52;-25.05
2.29;4.46;-26.35;-0.22;-25.37;4.68
-0.98;3.59;-18.30;-6.75;-26.14;14.37
1.42;1.20;0.22;-2.72;-20.47;12.74
1.42;-0.44;58.26;2.94;-12.52;25.70
3.05;5.23;50.97;-1.85;-3.59;20.80
2.29;0.44;7.51;-3.48;5.23;11.22
-0.98;-5.99;1.85;23.96;22.22;28.10
-2.61;-1.96;0.22;-11.54;14.16;11.98
-0.11;-1.20;-6.21;-1.09;17.32;12.74
3.05;-4.36;-2.18;2.94;18.19;-0.11
0.65;-6.86;1.85;10.24;13.29;-5.77
1.42;4.46;-4.57;6.21;18.19;-9.80
3.92;-3.59;-7.08;3.81;17.32;-9.80
3.05;1.20;-6.21;5.34;6.10;-8.93
-1.74;-2.83;-10.24;6.21;-1.96;-6.53
1.42;-3.59;-6.21;9.37;15.68;-11.43
-4.14;-5.23;-2.18;9.37;1.20;-12.96
-2.61;3.59;-2.18;5.34;2.83;-6.53
-1.74;-1.96;-4.57;-9.15;-3.59;1.52
3.05;-0.44;-1.42;-0.22;-6.86;3.92
3.05;4.46;-2.18;10.24;-15.68;2.29
2.29;-5.23;-2.18;-1.09;-5.99;3.16
-0.11;-9.26;-1.42;-32.45;-1.96;6.32
-5.77;-0.44;0.22;-1.85;3.59;4.68
-2.61;6.10;1.85;-3.48;3.59;17.64
3.05;-14.92;0.22;-0.22;10.89;13.61
2.29;1.20;6.64;2.94;5.23;13.61
0.65;1.20;-0.54;-29.29;5.23;7.95
1.42;-1.96;2.61;-4.25;-4.46;-0.87
2.29;-6.86;-23.20;-1.85;-15.68;-9.80
3.05;0.44;-2.18;-0.22;-20.47;-15.46
3.05;-5.23;-3.81;-5.88;-15.68;-19.49
1.42;-5.23;-2.18;-1.85;-9.26;-14.59
-5.77;-15.68;-7.08;3.81;4.46;-12.96
1.42;0.44;-6.21;0.54;4.46;-8.93
0.65;-20.47;-3.81;24.72;6.86;-13.83
-0.98;-9.26;-2.18;4.57;1.20;-17.86
-0.11;-8.39;-3.05;2.94;5.23;-11.43
-4.14;1.20;-4.57;-0.22;6.10;-2.50
1.42;5.23;0.22;-0.22;2.83;2.29
3.05;5.23;12.31;-1.09;-1.96;11.22
4.68;-2.83;0.22;-2.72;-0.44;12.74
0.65;-2.83;0.98;3.81;-6.86;14.37
3.05;-4.36;1.85;2.18;6.10;16.77
-0.98;-1.96;6.64;-3.48;22.98;16.01
2.29;-0.44;2.61;-1.85;29.40;20.04
2.29;-5.99;1.85;6.97;18.19;20.80
-1.74;0.44;2.61;6.97;2.83;13.61
0.65;4.46;-0.54;0.54;-16.55;-1.74
1.42;31.04;0.22;-10.78;-18.95;2.29
-4.14;0.44;0.22;3.81;-17.32;-8.17
2.29;-20.47;-2.18;-2.72;-10.02;-11.43
-1.74;-5.23;-2.18;-1.85;-17.32;-19.49
1.42;31.04;-4.57;-32.45;-20.47;-21.89
-1.74;-5.23;-7.84;2.94;-12.52;-3.38
2.29;-2.83;-4.57;-1.85;-0.44;-21.02
2.29;-0.44;-3.81;2.18;9.26;-24.28
-0.11;1.20;-7.84;31.91;10.13;-18.62
-1.74;-2.83;-4.57;0.54;16.55;-6.53
-8.17;-3.59;-3.81;1.31;12.52;2.29
-1.74;1.20;-2.18;-2.72;5.23;13.61
-2.61;-6.86;3.48;-1.85;-3.59;9.58
-1.74;-1.96;-1.42;-0.22;-4.46;17.64
-0.11;3.59;0.22;-2.72;-9.26;16.01
-5.01;5.23;6.64;-1.85;-10.02;16.77
1.42;-0.44;5.88;0.54;-5.99;13.61
-1.74;2.07;-0.54;-5.88;-2.83;19.28
-0.98;-1.96;0.98;-0.22;-1.20;10.35
-0.98;2.07;-2.18;0.54;6.10;2.29
-0.98;5.23;-3.81;-2.72;6.10;-5.77
0.65;-7.62;1.85;-2.72;5.23;-4.90
3.92;22.98;-1.42;19.06;14.16;-12.96
1.42;-3.59;-2.18;3.81;20.58;-14.59
-1.74;5.23;-2.18;33.54;3.59;-13.83
-6.64;-0.44;-3.05;11.00;-10.02;-9.80
-0.98;-1.20;-6.21;11.00;-5.99;-12.20
-0.11;-2.83;12.31;11.00;-5.99;-9.80
1.42;-1.96;-3.81;3.81;-6.86;-10.56
-1.74;-16.44;-5.44;-1.85;-5.23;6.32
-2.61;-5.99;-5.44;-4.25;-7.62;4.68
3.05;5.23;-0.54;6.21;-10.02;5.55
3.05;0.44;14.70;-3.48;-13.29;-7.41
3.05;4.46;1.85;-5.88;-18.95;17.64
-0.98;-18.08;-2.18;-4.25;-20.47;7.19
-3.38;4.46;0.22;-6.75;-13.29;7.19
1.42;0.44;3.48;-5.88;-10.89;-14.59
-5.01;-1.96;2.61;-7.51;1.20;19.28
-5.77;2.07;2.61;-9.91;1.20;9.58
3.92;1.20;1.85;-30.93;7.62;2.29
2.29;4.46;-0.54;2.18;10.13;-0.11
2.29;1.20;0.98;0.54;15.68;-8.93
-0.11;1.20;-2.18;2.94;10.89;-9.80
-1.74;-1.96;-3.81;3.81;10.89;-8.17
2.29;3.59;-6.21;2.94;7.62;-9.80
-2.61;0.44;-5.44;6.21;5.23;-12.20
-7.41;0.44;-14.27;2.18;5.23;-10.56
-0.98;-6.86;-9.47;3.81;4.46;-19.49
-2.61;-1.96;-9.47;2.18;1.20;-10.56
-4.14;3.59;-3.81;2.94;0.44;-1.74
-4.14;1.20;-1.42;3.81;0.44;2.29
1.42;-16.44;-1.42;0.54;1.20;3.92
0.65;0.44;-2.18;3.81;-2.83;7.95
3.05;-2.83;-20.69;-0.22;0.44;24.83
6.32;-0.44;5.88;11.00;-6.86;11.22
-0.11;7.62;1.85;-1.85;-5.23;13.61
-2.61;5.23;0.22;-7.51;-5.23;18.40
3.05;4.46;-1.42;-13.18;-1.96;23.30
3.05;3.59;-7.08;-0.22;-8.49;12.74
3.05;5.23;-2.18;-5.12;-3.59;10.35
-0.98;5.23;-0.54;-12.31;-15.68;-8.93
1.42;5.23;0.22;-4.25;-7.62;-10.56
-4.14;-1.96;-15.90;-6.75;4.46;-17.86
-0.11;-1.96;-22.32;-14.81;2.07;-21.02
-0.11;-2.83;-27.22;-31.69;0.44;-12.96
-5.77;27.01;-27.22;3.81;2.07;-9.80
-0.98;-0.44;-2.18;6.97;5.23;-15.46
1.42;-1.96;19.60;6.97;4.46;-19.49
1.42;31.80;59.02;6.97;2.83;-14.59
3.05;-18.95;10.67;6.21;-2.83;-8.93
-5.77;-5.99;-3.05;2.18;-2.83;0.65
-2.61;23.74;-2.18;6.97;-20.47;13.61
2.29;-0.44;-3.81;13.39;5.23;11.98
0.65;0.44;-1.42;0.54;5.23;20.04
3.05;1.20;2.61;0.54;18.19;17.64
-1.74;-1.96;1.85;2.94;15.68;22.43
3.05;-2.83;4.25;0.54;6.86;20.04
4.68;26.24;2.61;31.15;4.46;20.80
1.42;-3.59;-1.42;-1.09;-24.50;6.32
3.05;-5.23;3.48;1.31;-21.34;2.29
-0.98;-8.39;0.98;-1.85;-41.49;-6.53
0.65;-3.59;-17.53;-3.48;-21.34;-4.90
-0.98;-1.96;-2.18;2.94;-15.68;-14.59
-1.74;2.83;-2.18;-26.03;-2.83;-11.43
-4.14;1.20;-3.81;-30.93;16.55;-11.43
-4.14;5.23;-9.47;0.54;56.85;-10.56
1.42;1.20;-3.05;-1.85;27.77;-10.56
2.29;0.44;-3.05;-0.22;27.77;-22.65
0.65;-0.44;-2.18;-0.22;-0.44;-15.46
3.05;3.59;-2.18;-1.85;-10.02;-1.74
-0.98;0.44;-0.54;-5.88;-5.99;1.52
-0.98;3.59;2.61;-10.78;-5.99;6.32
-0.98;0.44;2.61;3.81;-5.99;7.95
-0.98;-1.96;-1.42;-6.75;-3.59;3.16
0.65;3.59;0.22;-1.85;-11.65;7.19
2.29;-11.65;-2.18;-4.25;-5.99;10.35
1.42;1.20;0.22;-1.85;-8.49;3.92
-2.61;5.23;-9.47;-1.85;-4.46;5.55
3.05;-1.96;0.22;6.97;-1.96;16.01
0.65;-1.96;2.61;0.54;2.07;-4.90
1.42;-0.44;6.64;-1.85;-0.44;-4.90
3.05;0.44;0.22;2.94;6.10;-5.77
2.29;-10.02;-3.05;5.34;16.55;-6.53
3.05;-6.86;-2.18;5.34;20.58;-3.38
-0.98;-3.59;-3.05;6.21;18.19;-10.56
3.05;-7.62;-2.18;1.31;15.68;-14.59
1.42;-1.96;-6.21;23.96;15.68;-10.56
2.29;-3.59;-12.63;-2.72;2.07;-17.86
3.05;-5.23;-10.24;3.81;-1.96;-15.46
3.05;-7.62;-2.18;6.97;-12.52;-10.56
-0.11;0.44;-3.05;10.24;-10.89;-4.90
-0.98;5.23;-2.18;-2.72;-18.95;-8.17
2.29;-0.44;-1.42;-3.48;-18.08;18.40
2.29;-3.59;3.48;-4.25;-12.52;7.95
-2.61;-0.44;6.64;-2.72;-12.52;51.40
-4.14;1.20;-2.18;10.24;-6.86;14.37
3.05;0.44;-3.81;-3.48;5.23;16.77
-4.14;2.83;5.88;0.54;21.34;23.30
-0.98;-18.08;1.85;15.03;22.22;17.64
3.05;-2.83;0.22;-1.85;18.95;4.68
2.29;-22.98;0.22;-1.85;4.46;2.29
-1.74;3.59;0.22;2.18;-9.26;7.95
3.92;-1.20;-2.18;12.63;-12.52;-10.56
2.29;-0.44;-3.05;-1.85;-8.49;-8.93
3.05;2.83;-2.18;7.84;-3.59;-10.56
2.29;-3.59;-1.42;7.84;7.62;-10.56
-2.61;-9.26;-3.81;0.54;5.23;-12.20
2.29;-4.36;-3.81;11.00;6.86;7.19
-0.11;-4.36;-3.81;8.60;9.26;-12.20
1.42;-6.86;-2.18;6.97;6.10;-8.93
3.92;5.23;-2.18;-2.72;5.23;2.29
3.05;2.83;-2.18;-4.25;6.10;-17.86
1.42;1.20;0.22;-13.18;5.23;7.19
-0.98;-4.36;-2.18;-2.72;6.86;-21.02
0.65;-0.44;-0.54;-2.72;5.23;12.74
3.05;-1.96;0.22;-3.48;-3.59;25.70
-0.98;15.68;1.85;11.00;-5.23;11.98
3.05;5.23;5.88;0.54;-9.26;11.22
-5.77;3.59;5.01;0.54;-16.55;3.92
-5.01;14.16;2.61;5.34;-18.08;0.65
-1.74;-14.92;1.85;0.54;-21.34;-2.50
3.05;2.83;-1.42;-9.91;-20.47;-8.17
3.05;2.83;-2.18;0.54;1.20;-12.96
-5.01;-8.39;-3.05;-0.22;5.23;-9.80
0.65;-1.96;-2.18;-26.03;16.55;-8.93
2.29;22.22;-2.18;6.97;20.58;-8.17
3.05;6.10;-2.18;2.94;17.32;-9.80
0.65;-1.96;-3.81;8.60;18.19;-12.20
3.05;-1.96;-2.18;-1.85;18.19;1.52
-0.98;-6.86;-6.21;2.94;15.68;0.65
-2.61;-1.96;-15.90;0.54;5.23;-0.87
-4.14;-0.44;-7.08;-9.91;-9.26;11.22
4.68;5.23;0.22;2.94;-22.11;-1.74
1.42;-3.59;1.85;-3.48;-25.37;10.35
-0.98;-2.83;6.64;-1.85;-22.11;16.01
3.05;2.83;5.01;2.18;-22.11;12.74
-0.11;6.10;5.01;2.18;-12.52;14.37
-1.74;2.83;-2.18;-1.09;2.83;16.01
3.05;5.23;6.64;6.97;0.44;10.35
2.29;-1.20;4.25;-1.85;6.86;-0.11
0.65;-2.83;0.22;22.32;14.16;-8.17
0.65;1.20;1.85;-6.75;9.26;2.29
-0.98;3.59;-3.05;-3.48;6.86;-13.83
0.65;1.20;-3.05;-3.48;2.83;-18.62
-2.61;10.89;-7.08;10.24;-2.83;-11.43
0.65;-29.40;-4.57;-1.09;4.46;-10.56
2.29;2.07;-7.08;3.81;2.83;-9.80
2.29;-1.96;-14.27;2.18;2.07;-18.62
-0.11;1.20;-18.30;2.94;2.83;-10.56
2.29;-3.59;-16.66;2.18;1.20;-17.86
3.05;-1.96;-22.32;-1.85;-19.71;2.29
-0.98;1.20;-17.53;-1.85;5.23;5.55
0.65;2.83;8.28;-0.22;31.04;11.22
0.65;6.10;71.11;5.34;2.07;11.98
4.68;2.07;34.09;2.18;-3.59;14.37
2.29;-12.41;5.88;-1.85;-12.52;4.68
-1.74;-3.59;1.85;-1.85;-11.65;7.95
2.29;1.20;-3.05;-0.22;-8.49;13.61
-1.74;-19.71;0.98;-1.09;-1.96;12.74
3.05;-1.96;3.48;-27.66;2.83;4.68
3.05;4.46;1.85;2.18;0.44;-0.11
3.05;5.23;-2.18;10.24;-3.59;-6.53
1.42;2.07;-3.05;-2.72;5.23;-12.20
0.65;1.20;-2.18;0.54;4.46;-5.77
-0.98;1.20;-5.44;6.21;5.23;-6.53
3.05;-8.39;-7.84;0.54;7.62;-6.53
-1.74;3.59;-6.21;-0.22;13.29;-8.17
2.29;-29.40;-3.81;7.84;14.16;-15.46
-1.74;-9.26;-10.24;6.97;14.92;-9.80
0.65;3.59;-1.42;6.97;5.23;-4.90
1.42;-15.68;-1.42;11.00;5.23;4.68
1.42;3.59;-2.18;2.94;23.74;2.29
0.65;-2.83;-1.42;2.94;2.07;7.19
3.05;-0.44;-1.42;-0.22;-1.96;13.61
1.42;3.59;1.85;-14.81;-6.86;11.98
-4.14;3.59;9.04;-2.72;-6.86;12.74
-1.74;-1.96;3.48;-5.88;-9.26;27.33
-0.11;0.44;5.88;-4.25;-10.02;14.37
1.42;4.46;0.22;-3.48;-12.52;4.68
3.05;2.83;3.48;-1.09;-18.08;-2.50
3.92;4.46;0.22;-7.51;-12.52;-8.17
3.05;-0.44;-1.42;0.54;-26.14;-3.38
3.05;2.83;-1.42;2.18;-0.44;-11.43
0.65;-1.96;-3.81;3.81;4.46;-11.43
3.05;-31.04;-5.44;2.94;16.55;-8.93
-2.61;-4.36;-6.21;-26.90;14.16;-5.77
3.05;3.59;-3.81;2.18;15.68;-9.80
-4.14;-0.44;-2.18;6.97;17.32;-15.46
0.65;-5.99;-3.05;6.21;12.52;-10.56
2.29;0.44;1.85;2.18;10.89;1.52
-0.11;1.20;-19.17;0.54;6.86;4.68
-2.61;3.59;-1.42;2.94;6.10;11.22
3.05;-1.96;-1.42;-0.22;9.26;20.04
-0.98;3.59;-2.18;-1.85;0.44;4.68
-0.98;1.20;1.85;-3.48;-5.23;-9.80
0.65;1.20;0.22;-5.12;-6.86;14.37
3.05;6.10;1.85;-4.25;-6.86;11.98
0.65;14.92;1.85;18.30;-8.49;16.77
1.42;10.13;5.88;-5.88;-10.89;3.16
-0.11;-9.26;2.61;-10.78;-8.49;-7.41
-4.14;4.46;5.88;-3.48;1.20;-10.56
0.65;16.55;0.22;-2.72;4.46;-12.96
3.05;-3.59;-4.57;5.34;2.07;-15.46
0.65;0.44;-2.18;6.97;-1.96;-18.62
-0.98;-1.96;-1.42;3.81;-5.99;-10.56
-0.98;1.20;-3.81;0.54;-9.26;-23.52
-2.61;-6.86;-4.57;10.24;-18.08;-11.43
-1.74;3.59;-7.84;3.81;-18.95;-14.59
0.65;-3.59;3.48;-1.09;-18.08;-12.96
2.29;-0.44;-3.05;7.84;-20.47;-4.90
-0.98;-3.59;1.85;-22.87;2.83;2.29
-0.11;0.44;-0.54;0.54;14.16;7.95
-0.98;2.83;6.64;2.94;18.19;53.91
2.29;-19.71;0.22;3.81;12.52;13.61
1.42;0.44;3.48;-1.85;19.71;20.80
1.42;5.23;-7.08;-1.85;17.32;32.89
-0.11;-3.59;-0.54;-1.85;14.92;12.74
2.29;6.10;2.61;-3.48;7.62;25.70
1.42;4.46;6.64;-1.85;-5.99;14.37
3.92;0.44;-1.42;2.94;-25.37;7.95
2.29;-3.59;-2.18;-1.85;1.20;-0.11
-1.74;5.23;-1.42;37.57;5.23;-6.53
0.65;-27.77;-3.05;2.94;1.20;-9.80
-4.14;-2.83;-3.05;2.18;-3.59;-8.93
-0.98;3.59;-2.18;5.34;2.83;-17.86
1.42;1.20;-1.42;6.21;2.83;-11.43
3.05;18.95;-3.81;6.97;-3.59;-12.20
0.65;-0.44;-3.81;6.97;-5.99;-14.59
0.65;2.83;-2.18;2.18;-10.02;-14.59
0.65;1.20;3.48;0.54;-5.99;-2.50
3.05;14.16;0.22;-1.85;-1.96;7.95
3.05;-3.59;-2.18;6.97;18.19;19.28
3.05;5.23;-2.18;3.81;22.22;12.74
1.42;-8.39;0.98;-1.09;12.52;14.37
3.05;-2.83;0.98;-1.85;-0.44;16.77
0.65;3.59;0.22;-5.12;-10.02;14.37
1.42;2.83;1.85;-7.51;-20.47;11.22
-0.98;5.23;5.01;-6.75;-35.07;12.74
1.42;5.23;3.48;-5.12;-24.50;7.95
1.42;-2.83;5.88;-1.85;-12.52;2.29
0.65;5.23;-0.54;6.21;0.44;-2.50
-0.11;-1.96;1.85;2.18;1.20;-9.80
3.05;-19.71;-2.18;2.94;-5.99;-10.56
-1.74;-1.96;-4.57;-1.85;-10.02;-8.93
1.42;-5.23;-6.21;2.18;-5.23;-11.43
-5.77;-6.86;-11.11;-3.48;10.89;-16.23
1.42;-5.99;-9.47;-0.22;6.86;-12.20
-0.11;-6.86;-7.08;-0.22;9.26;-22.65
-13.83;1.20;-12.63;4.57;18.19;-15.46
-0.11;-4.36;-14.27;1.31;6.10;-8.93
3.05;0.44;-17.53;-0.22;9.26;0.65
3.05;1.20;1.85;1.31;0.44;3.16
1.42;31.04;-10.24;-10.78;0.44;7.95
-0.11;6.86;6.64;0.54;-3.59;-3.38
3.05;9.26;67.84;2.18;-4.46;12.74
-5.01;1.20;38.88;8.60;-3.59;19.28
0.65;1.20;5.88;-2.72;1.20;16.01
0.65;0.44;-1.42;-0.22;4.46;17.64
-4.14;1.20;-6.21;0.54;5.23;10.35
-1.74;31.04;-2.18;-29.29;0.44;2.29
2.29;2.07;-3.81;-2.72;5.23;2.29
3.05;-1.96;10.67;1.31;13.29;0.65
3.05;-2.83;-2.18;6.21;7.62;-10.56
0.65;-1.96;-7.08;6.97;9.26;-12.20
-0.98;-5.23;-12.63;25.48;7.62;-10.56
3.05;0.44;-7.08;7.84;18.95;-9.80
3.05;0.44;-2.18;6.21;5.23;-5.77
3.05;0.44;-23.20;-2.72;2.83;-43.67
2.29;-5.23;-3.05;3.81;5.23;-11.43
0.65;1.20;-1.42;8.60;10.89;-0.11
-0.98;10.13;-2.18;-1.09;10.89;7.19
-0.11;30.27;1.85;-25.26;-2.83;7.19
-23.52;0.44;-9.47;2.18;3.59;9.58
-4.14;4.46;5.01;2.18;-1.96;16.01
-3.38;2.83;2.61;-1.85;-7.62;9.58
0.65;3.59;3.48;1.31;-14.92;11.22
2.29;2.83;8.28;-2.72;-22.11;3.92
3.92;-3.59;5.88;11.00;-22.98;6.32
-14.70;5.23;19.60;-6.75;-22.11;2.29
2.29;4.46;5.01;-9.15;-20.47;-8.17
-1.74;5.23;0.22;-5.88;-14.92;3.16
1.42;2.83;-11.87;-1.85;-5.99;-12.20
1.42;-1.96;-13.50;-29.29;-0.44;-10.56
-0.98;-26.14;-6.21;-1.85;5.23;-6.53
-0.98;-3.59;-3.81;3.81;4.46;-8.93
-0.98;-2.83;-12.63;5.34;8.49;-5.77
2.29;-9.26;-2.18;-2.72;10.13;-5.77
-4.14;-0.44;-7.84;4.57;9.26;-10.56
2.29;-9.26;-6.21;-1.09;14.16;-8.17
-1.74;-5.23;-2.18;2.18;12.52;0.65
-0.98;2.83;-1.42;3.81;10.89;6.32
-0.98;5.23;-1.42;3.81;10.89;7.19
2.29;-1.96;14.70;0.54;5.23;11.22
0.65;-0.44;2.61;-0.22;5.23;19.28
0.65;2.83;-1.42;1.31;2.83;14.37
-0.11;3.59;23.63;8.60;5.23;16.77
1.42;5.23;1.85;4.57;0.44;10.35
2.29;-1.96;3.48;3.81;3.59;18.40
2.29;3.59;7.51;2.94;5.23;20.04
2.29;4.46;-15.90;0.54;3.59;7.95
2.29;2.83;6.64;-0.22;2.83;2.29
3.05;-1.96;5.88;3.81;-3.59;-10.56
2.29;2.83;-2.18;-1.09;-9.26;-12.20
2.29;2.07;-2.18;-1.85;-3.59;-11.43
-0.98;-1.96;-2.18;-0.22;3.59;-9.80
3.05;-14.92;-7.84;-1.09;5.23;-12.20
2.29;0.44;-2.18;2.94;5.23;12.74
2.29;-1.96;-7.08;0.54;5.23;-21.02
-0.11;-5.23;-2.18;-33.32;7.62;-17.86
0.65;5.23;-3.81;-9.15;1.20;-9.80
1.42;-2.83;-3.81;-2.72;-10.02;-8.17
-0.11;-1.96;-2.18;2.94;-4.46;1.52
-2.61;-5.99;-0.54;-1.09;-20.47;5.55
3.92;-16.44;-0.54;2.18;-22.98;6.32
-4.14;2.83;0.22;-1.85;-20.47;17.64
-3.38;2.83;0.22;2.94;-15.68;10.35
3.05;4.46;-2.18;-1.85;2.83;13.61
-20.26;4.46;5.01;-4.25;6.10;23.30
-0.98;1.20;2.61;-14.81;7.62;16.01
3.05;5.23;2.61;10.24;8.49;8.71
-2.61;-0.44;-3.05;0.54;1.20;20.80
-0.98;-5.23;1.85;6.97;-3.59;-4.90
-3.38;-5.23;-3.05;0.54;-0.44;-37.13
-0.98;-0.44;-2.18;-1.09;-1.20;-11.43
1.42;-1.20;-1.42;-1.85;6.86;-7.41
3.05;3.59;-7.08;1.31;5.23;-12.96
-0.98;1.20;-2.18;2.18;0.44;-11.43
2.29;-1.96;-7.08;-17.21;8.49;-17.86
-0.11;-31.04;-11.11;6.97;12.52;-10.56
2.29;-2.83;-3.81;2.94;13.29;-4.90
-0.98;-1.96;-3.05;3.81;11.65;12.74
1.42;-1.96;0.22;3.81;4.46;4.68
2.29;3.59;-2.18;2.18;3.59;10.35
3.92;2.83;3.48;11.00;5.23;20.04
1.42;2.07;5.88;11.00;13.29;20.80
5.44;0.44;1.85;13.39;9.26;14.37
3.05;2.83;-2.18;-1.85;16.55;16.01
3.05;2.83;10.67;-3.48;17.32;17.64
3.05;5.23;3.48;-6.75;15.68;11.22
-0.98;-3.59;5.88;-4.25;-5.23;-0.11
-0.98;2.07;3.48;-9.91;-24.50;7.95
2.29;1.20;3.48;-9.15;-37.46;-10.56
-2.61;-0.44;0.22;-2.72;-20.47;-19.49
-0.98;-0.44;-6.21;-1.09;-5.99;-11.43
-0.98;-6.86;-5.44;2.18;10.13;-12.20
-0.98;1.20;-11.11;-2.72;10.13;-11.43
-14.70;3.59;-9.47;2.18;3.59;-6.53
-0.98;-3.59;-5.44;-1.09;-8.49;-19.49
-0.98;-1.96;-10.24;2.18;-14.92;-9.80
1.42;-4.36;-3.81;-0.22;-16.55;-1.74
3.05;3.59;-27.99;-1.09;-18.08;32.13
2.29;0.44;-2.18;0.54;-13.29;7.19
0.65;1.20;-2.18;-2.72;-7.62;16.77
0.65;0.44;-1.42;-3.48;4.46;14.37
0.65;1.20;-1.42;-0.22;7.62;16.01
-1.74;-0.44;-11.11;-1.85;5.23;7.95
0.65;7.62;-14.27;6.97;5.23;14.37
3.05;0.44;-6.21;-3.48;2.83;28.86
3.05;-1.96;-7.84;-0.22;5.23;14.37
-0.98;4.46;5.01;-1.85;20.58;3.16
0.65;5.23;58.26;2.94;6.86;-5.77
-0.98;-7.62;35.72;0.54;5.23;-12.20
8.71;-3.59;3.48;-1.09;6.10;-14.59
-2.61;-1.96;-9.47;2.18;10.13;-8.93
7.08;0.44;-3.81;5.34;7.62;-25.92
-0.98;1.20;-9.47;8.60;-6.86;-3.38
-30.82;0.44;-6.21;8.60;6.10;-7.41
-0.98;-1.96;-4.57;2.18;6.10;-10.56
23.20;1.20;-6.21;3.81;6.86;-6.53
5.44;-2.83;-4.57;24.72;4.46;-1.74
-1.74;0.44;-3.81;6.21;5.23;1.52
3.05;1.20;-0.54;-1.09;2.83;11.22
-33.98;3.59;-2.18;-1.09;18.19;13.61
3.05;5.23;-2.18;-1.85;1.20;7.19
2.29;2.83;-2.18;-0.22;-5.99;6.32
-5.01;5.23;1.85;8.60;2.07;10.35
1.42;-2.83;3.48;-1.85;0.44;7.95
3.05;-23.74;2.61;-28.42;-5.23;10.35
-5.01;-0.44;3.48;1.31;-12.52;27.33
-2.61;2.83;-0.54;24.72;-11.65;-0.11
-4.14;2.83;0.22;2.94;-2.83;-4.90
-1.74;1.20;1.85;2.18;-2.83;-15.46
-1.74;-1.96;5.01;6.97;-2.83;22.43
2.29;31.04;0.98;35.94;-31.04;-12.20
0.65;-2.83;2.61;0.54;-10.02;-12.96
3.92;2.83;-6.21;2.94;-0.44;-12.96
3.05;15.68;-3.81;19.06;1.20;-12.96
0.65;0.44;-13.50;2.94;-8.49;-16.99
-1.74;5.23;-17.53;19.93;-1.96;-15.46
-4.14;1.20;-6.21;-3.48;-20.47;-6.53
1.42;1.20;-2.18;4.57;-9.26;3.16
7.95;-5.99;3.48;-0.22;10.89;10.35
-0.98;-0.44;6.64;-3.48;-11.65;12.74
-17.86;4.46;9.91;-0.22;-10.02;3.16
-1.74;3.59;2.61;9.37;-5.23;15.25
-5.01;2.07;5.01;-4.25;4.46;24.07
3.05;2.07;6.64;-1.09;10.89;15.25
3.05;5.23;3.48;0.54;10.89;13.61
3.92;-13.29;9.91;-1.85;8.49;7.95
-7.41;4.46;6.64;-4.25;4.46;-4.90
28.86;-1.96;0.22;0.54;5.23;-9.80
3.05;3.59;0.98;24.72;-1.96;-8.93
28.86;1.20;-13.50;-1.09;-2.83;-14.59
1.42;-5.99;-11.87;0.54;-2.83;-12.96
3.92;-0.44;10.67;-0.22;-3.59;16.77
3.05;-8.39;-7.84;2.94;-2.83;-8.93
3.92;-2.83;-3.81;6.21;4.46;-9.80
-0.11;-0.44;-3.81;13.39;6.10;-10.56
16.01;4.46;-3.81;5.34;7.62;-8.17
2.29;5.23;-7.08;-14.81;26.24;-1.74
0.65;-1.96;-2.18;0.54;25.37;6.32
3.05;0.44;-3.05;-27.66;5.23;12.74
0.65;4.46;-3.05;-1.85;15.68;13.61
1.42;5.23;0.22;-2.72;10.89;16.77
1.42;3.59;0.98;-1.85;5.23;13.61
0.65;5.23;-0.54;-5.88;-5.23;10.35
-2.61;3.59;0.98;19.06;-10.02;10.35
-0.98;-3.59;0.22;-5.88;-13.29;18.40
3.05;-0.44;3.48;1.31;6.10;11.22
-4.14;5.23;5.01;10.24;-11.65;4.68
2.29;-0.44;1.85;2.94;-8.49;1.52
2.29;-1.96;-2.18;7.84;-10.02;-7.41
-2.61;0.44;-2.18;-3.48;-2.83;-17.86
3.05;-1.20;-20.69;-3.48;-0.44;-17.86
2.29;-1.96;-0.54;-5.88;-6.86;-12.20
2.29;-9.26;-2.18;-3.48;-9.26;-40.40
3.05;1.20;-3.05;-2.72;-14.05;-11.43
-2.61;-1.96;-3.81;2.94;-14.92;-22.65
-14.70;-5.99;-7.84;-2.72;-10.89;-11.43
18.40;-1.96;-6.21;0.54;-3.59;-9.80
-0.98;-1.96;-3.05;0.54;-2.83;-0.87
20.80;-2.83;-2.18;8.60;6.10;7.19
3.05;-3.59;-23.96;6.21;6.86;-10.56
3.05;-3.59;-1.42;4.57;9.26;19.28
4.68;0.44;-1.42;6.97;22.98;16.77
2.29;-10.02;5.88;-13.94;17.32;24.07
-4.14;5.23;0.22;-0.22;27.01;17.64
3.05;0.44;5.88;0.54;17.32;23.30
3.05;-3.59;5.88;-14.81;14.92;15.25
0.65;2.07;5.01;-2.72;-0.44;10.35
4.68;1.20;-2.18;-2.72;-19.71;-0.87
0.65;2.07;-27.99;-9.91;-20.47;-6.53
3.05;0.44;-20.69;-5.88;-12.52;-8.17
3.05;2.07;-27.99;-1.09;-11.65;-17.86
-0.98;-1.96;-19.17;-1.85;-0.44;-12.20
-27.55;2.83;-2.18;6.97;0.44;-8.93
3.05;6.10;67.08;11.00;5.23;-9.80
0.65;-5.99;22.76;2.18;2.83;-12.20
3.05;-8.39;-9.47;-6.75;5.23;-10.56
3.05;-7.62;-5.44;22.32;7.62;2.29
1.42;-1.96;-24.72;0.54;10.13;11.22
3.05;0.44;-7.08;7.84;9.26;11.22
3.05;-3.59;-2.18;-1.85;9.26;16.77
2.29;2.83;-3.81;2.18;5.23;15.25
-2.61;1.20;0.22;-0.22;17.32;10.35
1.42;1.20;-2.18;5.34;15.68;11.22
-1.74;1.20;0.22;0.54;6.10;11.98
-1.74;2.83;-0.54;1.31;-12.52;13.61
1.42;4.46;3.48;-1.85;-31.04;3.92
2.29;3.59;1.85;-1.09;-37.46;-1.74
-1.74;2.83;3.48;-20.36;-26.14;-6.53
1.42;2.07;-2.18;-28.42;-19.71;-8.93
1.42;0.44;-2.18;11.00;-7.62;-12.20
-0.98;5.23;-6.21;-3.48;1.20;-10.56
-0.98;-27.01;-5.44;0.54;7.62;-8.93
-0.98;-1.96;-12.63;-1.09;10.89;-4.90
-1.74;-5.23;-7.84;-2.72;7.62;-1.74
-2.61;-1.96;-11.11;-9.91;10.13;-12.20
-5.01;-2.83;-12.63;2.94;9.26;-12.20
1.42;-18.08;-7.08;2.94;9.26;-6.53
-0.98;-5.99;-9.47;-0.22;7.62;-12.20
0.65;-6.86;12.31;3.81;10.13;2.29
1.42;-4.36;0.98;3.81;4.46;11.98
0.65;-1.96;2.61;-1.09;3.59;14.37
-4.14;0.44;2.61;0.54;-11.65;11.22
-0.98;0.44;1.85;-1.85;-3.59;10.35
-4.14;1.20;2.61;0.54;-10.02;16.77
5.44;4.46;1.85;-2.72;-5.23;17.64
1.42;4.46;5.88;-12.31;-5.99;11.22
3.05;0.44;6.64;11.87;0.44;11.98
0.65;5.23;3.48;-1.09;-3.59;1.52
2.29;4.46;-2.18;36.81;-1.96;-7.41
2.29;-1.96;-4.57;0.54;4.46;-9.80
3.05;3.59;-3.05;2.94;-1.96;-14.59
3.05;1.20;-15.14;7.84;-10.02;-9.80
-1.74;-1.96;-7.08;0.54;-12.52;-10.56
-5.01;-1.96;-11.87;-1.85;-16.55;-11.43
1.42;-1.96;-12.63;2.18;-12.52;-17.86
-0.98;-5.23;-4.57;6.97;-3.59;-10.56
-13.83;-6.86;9.91;-1.09;6.86;-3.38
3.05;3.59;-1.42;-1.85;4.46;2.29
-0.98;1.20;-0.54;34.41;5.23;11.22
-0.11;3.59;5.01;39.20;7.62;9.58
3.05;2.83;-2.18;-4.25;9.26;11.98
2.29;1.20;8.28;-14.81;5.23;14.37
-0.98;1.20;8.28;2.94;3.59;16.01
-0.98;2.83;10.67;-3.48;5.23;32.13
-0.98;9.26;-2.18;-1.09;-7.62;19.28
4.68;-9.26;1.85;2.18;1.20;14.37
-0.11;6.10;1.85;-5.88;5.23;7.19
-5.01;4.46;-16.66;-1.09;5.23;2.29
-4.14;-1.96;2.61;-13.94;5.23;-2.50
3.05;-1.96;2.61;-1.09;9.26;-8.93
2.29;5.23;14.70;10.24;12.52;-6.53
-7.41;1.20;-3.05;8.60;5.23;-21.89
3.05;-3.59;-3.81;10.24;4.46;-17.86
2.29;-5.99;-3.05;40.84;0.44;-11.43
3.05;-10.02;-3.81;2.18;-0.44;-18.62
3.05;3.59;-2.18;0.54;-5.99;-12.20
-0.98;-34.19;-6.21;-1.85;-8.49;-8.17
1.42;2.83;-2.18;-9.15;-5.23;-6.53
3.05;22.98;-3.05;23.96;5.23;-0.11
-5.01;1.20;2.61;-4.25;-8.49;10.35
0.65;-0.44;-2.18;-9.91;-8.49;3.16
3.05;1.20;1.85;-4.25;-10.02;14.37
-2.61;0.44;-0.54;-4.25;-5.23;14.37
3.05;2.83;1.85;-1.85;5.23;13.61
3.05;1.20;3.48;2.18;-0.44;31.36
-0.11;-8.39;9.91;2.18;6.10;15.25
1.42;2.07;-15.90;0.54;7.62;16.01
-0.98;-0.44;5.88;3.81;10.13;3.16
3.92;18.95;0.22;11.00;15.68;1.52
-1.74;5.23;-0.54;10.24;13.29;-2.50
3.05;0.44;-2.18;3.81;12.52;-11.43
1.42;-1.96;-3.05;10.24;9.26;-11.43
3.05;-0.44;-3.05;3.81;10.89;-10.56
-5.01;0.44;-2.18;12.63;6.86;-10.56
-0.11;0.44;-2.18;2.18;-2.83;-19.49
-4.14;0.44;-6.21;6.97;-7.62;-17.86
1.42;0.44;-3.81;0.54;-16.55;-11.43
3.05;-1.96;-3.81;-9.91;-21.34;-3.38
3.05;-0.44;-2.18;-5.88;-19.71;3.16
-0.98;5.23;-2.18;-4.25;-7.62;9.58
-0.98;-0.44;-2.18;-9.91;7.62;2.29
-7.41;0.44;-2.18;-3.48;-6.86;22.43
-5.01;2.83;1.85;-4.25;-18.95;12.74
-3.38;10.13;3.48;5.34;-8.49;15.25
3.05;-3.59;5.01;-2.72;10.89;14.37
2.29;2.83;5.01;-2.72;-1.96;12.74
-0.98;4.46;2.61;1.31;2.07;3.16
3.05;5.23;1.85;-28.42;3.59;1.52
0.65;-0.44;-0.54;2.94;3.59;-4.90
-0.98;-2.83;-0.54;0.54;6.86;-14.59
1.42;10.13;-3.05;2.94;6.10;-10.56
0.65;4.46;-3.05;2.18;6.10;-14.59
3.05;3.59;-11.11;5.34;15.68;-1.74
-6.64;-4.36;-2.18;6.97;6.10;-6.53
1.42;-5.23;-5.44;11.00;9.26;9.58
3.05;2.83;-3.81;3.81;3.59;-7.41
3.05;4.46;-4.57;-1.85;-2.83;-1.74
-0.98;-2.83;-3.81;29.51;-9.26;3.16
2.29;2.83;-1.42;-3.48;-5.23;10.35
2.29;1.20;5.01;-0.22;10.89;16.01
-0.98;5.23;-0.54;5.34;22.22;15.25
0.65;3.59;-3.05;2.94;18.95;28.10
1.42;-27.77;-11.11;0.54;3.59;19.28
3.05;5.23;-10.24;4.57;-3.59;17.64
-2.61;1.20;-27.99;-6.75;-4.46;20.04
2.29;4.46;13.07;-1.85;2.83;14.37
3.05;5.23;18.73;5.34;0.44;2.29
3.92;2.07;72.75;-4.25;-30.17;-3.38
1.42;6.10;14.70;-1.85;-7.62;-10.56
-7.41;-5.99;-9.47;-3.48;-19.71;9.58
-4.14;-21.34;-12.63;2.94;-22.98;-12.20
-0.11;-5.23;-9.47;2.18;-26.14;-8.93
-25.16;-5.99;0.22;6.97;-24.50;-13.83
-0.11;0.44;-14.27;6.21;-15.68;-12.96
-5.77;0.44;-11.11;-1.85;-1.96;-15.46
-0.98;-3.59;-12.63;0.54;0.44;-17.86
3.05;-8.39;-6.21;-1.85;14.92;-10.56
-0.11;-2.83;-1.42;-4.25;15.68;3.92
-0.98;-3.59;-2.18;-0.22;10.89;3.92
-0.98;2.07;-7.08;0.54;15.68;6.32
-4.14;0.44;0.22;-4.25;15.68;13.61
3.05;1.20;0.22;-2.72;6.86;13.61
-4.14;2.83;-1.42;-2.72;2.83;15.25
-0.11;-25.37;1.85;-13.94;-0.44;14.37
2.29;4.46;1.85;-2.72;12.52;17.64
2.29;5.23;5.88;0.54;2.83;22.43
2.29;-14.92;5.88;-14.81;4.46;10.35
3.05;3.59;3.48;-0.22;2.83;2.29
3.05;1.20;0.22;0.54;5.23;-6.53
2.29;-3.59;-2.18;8.60;2.83;-12.20
-36.37;-0.44;-3.81;-0.22;2.83;-11.43
-0.98;0.44;-9.47;-1.09;2.83;-9.80
-5.01;-3.59;-12.63;2.94;-2.83;-9.80
-0.11;6.86;-7.08;0.54;6.10;-9.80
-0.11;0.44;-11.11;9.37;17.32;-8.17
1.42;-0.44;-3.05;8.60;25.37;-17.86
-2.61;12.52;0.22;-2.72;2.83;-0.87
-7.41;35.07;-2.18;6.21;-1.96;-0.11
3.05;-3.59;1.85;-4.25;-1.96;6.32
2.29;-2.83;-4.57;-1.85;-9.26;16.01
3.05;4.46;-2.18;-5.88;-11.65;17.64
-0.11;2.07;-10.24;-4.25;0.44;24.07
3.05;-8.39;0.22;0.54;-3.59;14.37
-2.61;3.59;5.01;8.60;4.46;12.74
3.05;5.23;2.61;2.18;-0.44;13.61
0.65;-1.96;6.64;-2.72;-25.37;3.16
-0.11;4.46;18.73;-4.25;-5.99;-21.02
-0.11;2.83;3.48;-4.25;-9.26;-9.80
3.05;0.44;1.85;-9.15;-8.49;-19.49
0.65;2.83;-2.18;-7.51;-2.83;-21.89
11.98;-1.96;-12.63;-4.25;0.44;-30.71
3.05;1.20;-7.08;-2.72;1.20;-10.56
-4.14;2.83;-6.21;3.81;5.23;-8.17
-0.11;-1.96;-2.18;6.21;3.59;-7.41
-24.28;-3.59;-6.21;-0.22;9.26;-16.23
0.65;-5.23;-4.57;1.31;16.55;2.29
-1.74;-6.86;-4.57;2.94;6.10;-10.56
11.11;-1.96;23.63;5.34;3.59;2.29
-1.74;2.83;-2.18;-2.72;-5.23;20.80
-1.74;-18.08;-2.18;19.93;-12.52;7.95
0.65;5.23;-2.18;-1.09;-9.26;7.19
2.29;4.46;8.28;2.94;-1.96;20.04
0.65;-22.98;1.85;9.37;-5.23;13.61
-4.14;1.20;1.85;1.31;-2.83;13.61
-5.77;-1.96;5.88;-3.48;-3.59;17.64
-7.41;5.23;8.28;-5.88;-3.59;14.37
3.05;5.23;5.88;-3.48;-9.26;10.35
1.42;-1.96;8.28;-5.12;5.23;3.16
1.42;2.07;5.01;-1.09;4.46;-6.53
-5.77;-1.96;-2.18;-1.09;5.23;-1.74
-2.61;5.23;23.63;2.94;5.23;-8.17
-18.73;4.46;-3.05;1.31;4.46;-9.80
0.65;-35.83;-4.57;10.24;6.86;-4.90
3.05;-1.96;-4.57;6.97;12.52;-4.90
-2.61;3.59;3.48;6.21;6.10;-0.11
-2.61;3.59;0.22;5.34;5.23;-17.86
-0.98;-5.23;-2.18;8.60;1.20;-8.93
-2.61;2.83;-12.63;6.21;0.44;-2.50
3.05;31.04;-14.27;15.90;-6.86;2.29
-0.98;-7.62;-3.05;-13.94;-8.49;11.22
5.44;5.23;-1.42;-1.09;-12.52;7.95
3.05;5.23;-17.53;-1.09;-14.92;11.22
-1.74;-2.83;-15.14;0.54;-5.99;40.18
-0.98;-0.44;7.51;-1.85;-1.96;11.22
3.05;-1.96;3.48;-5.88;13.29;12.74
3.05;3.59;5.01;-9.15;18.19;16.77
-2.61;5.23;6.64;-3.48;19.71;7.95
-0.98;0.44;22.76;2.94;17.32;1.52
11.98;-1.96;-17.53;1.31;13.29;-2.50
-2.61;-1.96;3.48;3.81;6.10;-8.93
7.08;-22.98;-0.54;2.94;-5.99;-11.43
3.05;10.13;0.22;6.97;-10.02;-5.77
3.05;2.83;-3.81;8.60;-9.26;-8.93
-0.98;0.44;-2.18;3.81;-10.89;23.30
3.05;-2.83;-3.05;2.18;-20.47;-16.23
4.68;-2.83;-4.57;-0.22;-8.49;-15.46
0.65;-0.44;-3.05;-24.39;-10.02;-8.93
-11.43;-5.99;5.01;-7.51;-11.65;-4.90
3.05;-0.44;-2.18;2.94;-14.92;1.52
-0.11;5.23;1.85;0.54;-9.26;7.95
1.42;5.23;20.36;-7.51;-5.23;-8.93
-43.67;-0.44;1.85;-3.48;3.59;13.61
1.42;1.20;0.22;-1.09;5.23;16.01
0.65;2.83;3.48;-2.72;5.23;10.35
-4.14;0.44;1.85;-5.88;0.44;18.40
3.05;2.83;5.88;-3.48;4.46;16.77
-1.74;1.20;1.85;-3.48;10.89;3.16
1.42;1.20;-0.54;0.54;22.22;2.29
-1.74;5.23;-1.42;3.81;29.40;-7.41
-0.98;-3.59;-1.42;-1.85;9.26;2.29
-5.77;4.46;-28.75;7.84;14.16;-10.56
-1.74;-5.99;-7.08;11.00;18.19;-39.64
-4.14;-2.83;-3.05;2.94;18.95;-11.43
-0.98;1.20;-9.47;2.94;8.49;-4.90
-0.11;0.44;-12.63;2.18;-14.92;-12.20
3.05;-7.62;5.88;6.97;-19.71;-9.80
3.05;-3.59;-7.08;1.31;-12.52;-7.41
3.05;-7.62;-1.42;0.54;-2.83;2.29
-1.74;27.77;-2.18;15.03;4.46;7.95
-2.61;1.20;-7.84;8.60;1.20;12.74
3.05;-3.59;9.91;3.81;5.23;13.61
-0.98;2.07;2.61;19.93;-1.96;14.37
-0.98;2.83;4.25;0.54;5.23;3.16
3.05;2.83;34.85;-1.85;2.83;9.58
2.29;6.10;1.85;-7.51;5.23;14.37
3.05;5.23;5.01;-1.85;5.23;11.22
2.29;2.83;3.48;-7.51;4.46;-16.23
-12.20;4.46;-1.42;-4.25;-2.83;0.65
-0.11;5.23;-2.18;-6.75;7.62;-6.53
3.05;-1.96;-1.42;-1.09;-1.96;-14.59
3.05;-1.96;-3.05;-1.85;0.44;-11.43
-12.20;-18.08;-3.05;11.00;-6.86;-14.59
1.42;4.46;-3.05;-1.09;-12.52;-14.59
-29.95;2.07;-19.17;0.54;-14.92;-9.80
3.05;-5.23;-18.30;11.00;-15.68;-14.59
6.32;-7.62;-19.93;3.81;-10.02;-12.20
0.65;-2.83;-22.32;3.81;2.83;11.22
-22.76;3.59;-3.81;-1.09;3.59;-0.87
3.05;2.83;28.42;-1.85;1.20;3.16
3.05;-1.20;63.05;-1.85;5.23;7.19
-1.74;-31.04;16.33;-6.75;5.23;15.25
-0.98;-5.99;-1.42;-1.09;-3.59;11.22
-0.98;-7.62;-2.18;-31.69;1.20;14.37
2.29;2.07;-2.18;2.18;5.23;11.22
2.29;3.59;18.73;-2.72;-1.96;39.42
3.05;-1.96;-1.42;10.24;4.46;16.01
3.05;1.20;9.04;-6.75;6.86;5.55
16.01;5.23;-0.54;-1.85;5.23;2.29
-7.41;-1.20;-0.54;-1.85;5.23;-0.87
2.29;2.83;-3.05;-2.72;6.10;-6.53
15.14;6.86;-7.08;6.97;9.26;-4.90
-8.17;-1.96;-7.08;-2.72;20.58;-6.53
-1.74;1.20;-9.47;11.00;22.22;-5.77
-0.98;1.20;-4.57;31.15;30.27;-7.41
-1.74;-0.44;-4.57;8.60;35.07;-12.96
-18.73;-3.59;-11.11;-1.09;10.89;2.29
-2.61;-1.96;22.00;-1.85;1.20;-10.56
4.68;3.59;-2.18;-6.75;14.16;1.52
-2.61;-4.36;-2.18;-13.18;-32.56;-0.11
2.29;-2.83;-1.42;-10.78;-47.92;2.29
-0.98;-1.96;-3.05;-9.91;-54.34;7.19
-2.61;2.83;-2.18;-2.72;-75.36;5.55
2.29;1.20;2.61;-14.81;-43.89;3.92
-13.83;2.83;0.22;-1.09;-22.11;15.25
-0.98;5.23;1.85;-9.91;-0.44;13.61
-0.98;-0.44;9.04;-1.09;22.98;7.19
0.65;-2.83;0.98;-2.72;32.67;7.19
2.29;-0.44;-2.18;-0.22;34.30;3.16
3.92;-5.23;-0.54;6.21;29.40;0.65
2.29;1.20;-2.18;2.94;3.59;-8.93
1.42;-2.83;-3.81;11.00;15.68;-8.93
1.42;-5.23;-6.21;2.18;15.68;-6.53
3.05;2.83;-5.44;10.24;5.23;-4.90
0.65;-3.59;-11.87;6.97;-1.96;-7.41
3.05;-8.39;-7.84;2.18;-7.62;-12.20
-0.98;0.44;-11.11;4.57;-19.71;-10.56
3.05;-2.83;-2.18;6.97;-9.26;-8.17
-10.67;-1.96;-2.18;-1.09;-9.26;-8.17
-0.98;-3.59;-1.42;-0.22;-3.59;2.29
3.05;-1.96;5.88;-1.09;5.23;7.95
-0.98;-2.83;-6.21;-0.22;5.23;17.64
2.29;-6.86;0.22;-2.72;5.23;11.22
18.40;3.59;1.85;-1.85;-0.44;32.13
-2.61;4.46;2.61;-3.48;-4.46;12.74
-2.61;-1.96;1.85;-5.88;-7.62;14.37
0.65;-0.44;-20.69;-5.12;5.23;14.37
28.86;4.46;3.48;-2.72;27.01;2.29
2.29;3.59;-1.42;2.18;6.86;2.29
2.29;2.83;-4.57;-0.22;4.46;17.64
0.65;5.23;-2.18;-1.09;-7.62;-2.50
8.71;5.23;-0.54;32.78;-2.83;-5.77
-1.74;0.44;-0.54;1.31;4.46;-8.93
-5.01;-1.96;-1.42;6.97;8.49;-4.90
-0.98;2.07;-0.54;8.60;13.29;3.16
-1.74;-1.96;-6.21;-4.25;12.52;-17.86
-3.38;-2.83;-9.47;6.97;4.46;-14.59
17.53;1.20;-19.93;3.81;1.20;-12.96
0.65;2.83;-9.47;-1.09;6.86;-6.53
-7.41;-6.86;-6.21;2.94;-1.96;-17.86
-0.11;0.44;-0.54;-1.85;-7.62;-11.43
2.29;2.83;-2.18;-4.25;-7.62;7.19
3.05;-1.96;-1.42;-3.48;-14.92;36.92
-5.01;2.07;1.85;-3.48;-15.68;-10.56
4.68;3.59;-2.18;-9.15;-18.95;10.35
0.65;3.59;0.22;-3.48;-1.96;31.36
3.05;5.23;5.01;-1.85;1.20;11.22
2.29;4.46;6.64;0.54;5.23;13.61
-4.14;0.44;0.22;-4.25;10.89;-5.77
3.05;0.44;-2.18;-4.25;12.52;-0.11
0.65;1.20;-2.18;-17.21;-2.83;-9.80
3.05;5.23;-2.18;-1.85;10.89;-8.93
-0.98;-5.23;-1.42;2.18;23.74;-10.56
-1.74;2.83;13.94;6.97;5.23;-5.77
7.95;-3.59;-7.84;8.60;5.23;-8.17
-1.74;2.83;-4.57;10.24;29.40;-16.23
-21.13;-7.62;-4.57;11.00;-20.47;-11.43
-0.98;-2.83;-2.18;2.18;-14.92;-10.56
3.05;-20.47;-2.18;3.81;-14.92;-0.11
-7.41;-1.96;-2.18;15.90;-9.26;4.68
-5.77;-3.59;-27.99;2.18;-6.86;-0.11
23.20;-0.44;6.64;0.54;-1.96;-14.59
3.92;-31.80;0.22;-6.75;4.46;11.22
-5.01;0.44;2.61;1.31;1.20;13.61
-2.61;-2.83;0.98;21.45;0.44;4.68
-21.89;-1.96;0.98;-3.48;-2.83;6.32
3.05;5.23;-0.54;-1.09;10.89;12.74
-0.11;5.23;0.22;-1.85;6.10;1.52
-3.38;3.59;0.98;-2.72;6.86;2.29
20.04;1.20;0.22;-1.09;6.10;0.65
-5.77;4.46;-3.05;2.18;5.23;-2.50
-10.67;-1.96;-0.54;-22.87;1.20;-4.90
3.05;-1.96;-6.21;11.00;2.83;-5.77
20.80;3.59;-2.18;8.60;-10.02;-14.59
3.05;1.20;-19.17;1.31;-19.71;-39.64
-5.01;-10.02;-3.81;-1.09;-21.34;-17.86
-4.14;5.23;-0.54;-4.25;-15.68;-17.86
-1.74;-7.62;-2.18;-2.72;-10.89;-8.93
3.05;-5.23;-0.54;-3.48;1.20;-0.87
0.65;-5.23;3.48;-3.48;5.23;-3.38
-0.98;-3.59;-2.18;0.54;8.49;9.58
-17.86;-1.20;-19.17;-4.25;14.16;13.61
3.92;6.86;-9.47;-18.84;14.16;16.01
2.29;5.23;-12.63;-1.85;18.19;16.01
-0.11;5.23;-11.87;-1.09;12.52;11.22
2.29;-5.23;-14.27;0.54;5.23;16.77
2.29;-1.96;-5.44;0.54;-5.23;20.04
-0.98;4.46;21.13;-1.09;-5.99;7.95
-5.77;1.20;62.29;2.18;-5.99;2.29
3.05;0.44;0.22;6.21;-10.02;9.58
0.65;-27.77;1.85;1.31;-11.65;-11.43
-0.98;-5.23;-7.84;3.81;-3.59;-8.17
-1.74;-31.04;-7.08;11.00;0.44;-8.17
0.65;4.46;-7.84;6.97;5.23;-8.93
-22.76;1.20;-10.24;0.54;8.49;-1.74
-1.74;22.22;-8.60;-13.94;10.89;-12.20
5.44;-3.59;-7.84;2.18;17.32;-10.56
3.05;1.20;19.60;11.00;26.24;-9.80
2.29;-2.83;-2.18;-25.26;18.19;2.29
2.29;5.23;0.22;-27.66;5.23;6.32
-0.98;-2.83;0.22;-2.72;-28.53;10.35
-7.41;-14.92;3.48;-14.81;-16.55;5.55
-2.61;0.44;0.22;1.31;-24.50;5.55
-1.74;0.44;0.22;-5.88;-22.11;3.92
36.05;2.83;1.85;-2.72;-20.47;2.29
-5.01;2.07;0.22;-9.15;-16.55;15.25
3.05;2.07;1.85;-1.85;-3.59;6.32
2.29;-1.96;0.98;32.78;-1.96;1.52
3.05;2.83;1.85;3.81;6.10;2.29
3.92;1.20;-0.54;2.94;-3.59;-4.90
-0.98;1.20;20.36;0.54;5.23;-7.41
-0.11;-5.23;-2.18;6.21;5.23;-8.17
-0.98;1.20;-7.08;-1.09;18.95;-6.53
19.17;2.07;-3.81;0.54;20.58;-28.31
-4.14;0.44;-3.81;-1.85;15.68;-4.90
-0.11;5.23;-6.21;11.00;5.23;-8.17
4.68;-3.59;-3.81;-1.09;-18.95;-12.96
3.92;0.44;-1.42;-0.22;-20.47;-4.90
-31.58;0.44;-2.18;-4.25;-18.95;-10.56
-0.11;2.07;-2.18;-1.85;-5.99;2.29
-5.01;0.44;-1.42;-3.48;4.46;7.19
-4.14;-0.44;-2.18;-3.48;7.62;14.37
26.46;1.20;-3.05;2.18;-10.02;16.77
1.42;0.44;3.48;-0.22;9.26;15.25
16.77;2.83;5.88;0.54;6.86;11.22
-0.11;15.68;0.98;11.00;5.23;19.28
-15.46;2.07;5.88;-1.85;2.83;12.74
-41.27;-0.44;0.22;36.81;2.83;6.32
-5.77;-0.44;17.97;2.18;-1.96;23.30
1.42;-7.62;0.22;3.81;-4.46;-7.41
8.71;5.23;-2.18;3.81;-5.99;-0.11
3.05;-1.96;-2.18;0.54;-5.23;7.19
-17.10;19.71;-2.18;11.87;0.44;-13.83
3.05;-8.39;-2.18;11.00;5.23;-10.56
2.29;1.20;-2.18;11.00;4.46;-8.17
-1.74;-5.99;-3.81;-26.03;4.46;-14.59
7.95;-5.23;-3.81;7.84;-3.59;2.29
3.92;4.46;-2.18;5.34;4.46;-10.56
0.65;2.83;-1.42;-1.09;-2.83;-2.50
-6.64;-5.23;-0.54;3.81;5.23;4.68
-0.98;10.13;0.98;1.31;16.55;6.32
1.42;1.20;0.22;-3.48;2.07;14.37
-4.14;8.49;0.22;-7.51;-3.59;14.37
33.65;1.20;6.64;15.03;4.46;11.98
3.05;1.20;5.01;-5.88;-3.59;27.33
1.42;3.59;-2.18;-1.09;-8.49;18.40
1.42;4.46;9.91;-5.88;-5.99;28.10
3.05;2.07;5.01;-1.09;13.29;7.95
-4.14;1.20;2.61;5.34;6.86;2.29
-9.04;-1.96;-1.42;2.18;20.58;-6.53
2.29;-5.23;-2.18;0.54;14.16;-11.43
-3.38;-5.99;-10.24;2.94;7.62;-9.80
1.42;-4.36;-17.53;7.84;5.23;-9.80
-0.98;2.07;-10.24;6.21;4.46;-10.56
11.11;-3.59;-10.24;3.81;1.20;-17.86
1.42;-1.96;-4.57;0.54;-12.52;-20.26
-2.61;3.59;-1.42;12.63;-11.65;-14.59
3.05;1.20;-1.42;3.81;-20.47;-8.17
-1.74;0.44;-0.54;6.97;-18.95;-0.11
-1.74;-1.96;-0.54;2.18;-13.29;3.16
3.05;2.83;-1.42;-2.72;7.62;7.19
-8.17;-0.44;-0.54;-9.91;9.26;12.74
-0.98;2.83;5.01;-10.78;5.23;9.58
11.98;16.55;3.48;-7.51;6.86;7.95
-0.98;3.59;3.48;-9.15;5.23;-18.62
-22.76;0.44;13.07;-5.88;-1.96;28.10
1.42;-3.59;5.88;-2.72;-5.99;5.55
12.74;0.44;3.48;-6.75;-8.49;3.92
-0.98;-2.83;0.22;-2.72;-2.83;4.68
3.05;0.44;-1.42;-2.72;0.44;-0.11
-4.14;-1.96;-2.18;2.94;5.23;12.74
3.05;0.44;-3.05;8.60;5.23;-8.17
3.05;-9.26;-5.44;6.21;4.46;-14.59
-17.10;-1.96;-6.21;-14.81;5.23;-12.96
-3.38;-5.23;-9.47;3.81;4.46;-2.50
0.65;-1.96;-4.57;9.37;3.59;-15.46
-5.01;-2.83;-4.57;19.06;-20.47;-18.62
-5.77;-2.83;-15.14;2.94;-5.23;-9.80
-0.98;1.20;-33.65;0.54;-11.65;-6.53
0.65;-3.59;-15.14;1.31;-6.86;3.92
2.29;-0.44;-17.53;-1.09;-2.83;12.74
28.10;27.01;1.85;0.54;2.83;15.25
0.65;3.59;42.14;0.54;5.23;-3.38
-0.98;3.59;59.02;2.18;23.74;23.30
-5.01;3.59;10.67;1.31;6.10;13.61
2.29;-6.86;0.22;2.18;3.59;20.80
-5.01;-0.44;-2.18;-11.54;7.62;19.28
36.05;1.20;-2.18;3.81;10.89;35.39
3.05;-3.59;-0.54;2.94;6.10;2.29
2.29;-0.44;-2.18;-2.72;13.29;0.65
3.05;5.23;-7.84;-1.85;5.23;-10.56
2.29;-0.44;-7.84;0.54;5.23;-15.46
0.65;-0.44;-7.08;-3.48;-14.05;-17.86
-1.74;1.20;-7.08;-1.09;2.83;-11.43
-5.77;-2.83;-9.47;-3.48;4.46;-11.43
0.65;3.59;-3.05;2.94;-5.99;-17.86
18.40;2.07;-7.08;-2.72;-12.52;-23.52
-10.67;-3.59;-11.87;-4.25;-20.47;-19.49
1.42;-5.99;-12.63;0.54;-18.95;-4.90
0.65;-3.59;-6.21;-1.09;-19.71;4.68
3.92;5.23;-0.54;3.81;-16.55;10.35
-0.11;4.46;-2.18;1.31;-18.08;7.19
-5.77;6.86;3.48;0.54;1.20;24.07
2.29;4.46;7.51;-1.85;1.20;15.25
-5.77;-2.83;0.98;-2.72;12.52;28.10
-2.61;28.64;5.88;-17.21;15.68;16.77
-4.14;-0.44;9.91;-2.72;10.89;16.77
-13.83;-3.59;0.22;-6.75;4.46;-12.96
0.65;-1.96;1.85;-1.85;-6.86;0.65
-17.10;5.23;0.22;0.54;-9.26;-6.53
-21.13;-1.96;-2.18;-1.85;-7.62;-8.17
1.42;0.44;-6.21;-2.72;0.44;-12.20
28.86;2.83;-14.27;3.81;-1.96;-3.38
2.29;2.83;-4.57;3.81;3.59;-2.50
4.68;-3.59;-7.08;6.97;2.83;-8.93
-4.14;3.59;-0.54;0.54;5.23;-28.31
-4.14;22.98;-4.57;0.54;6.10;-15.46
-7.41;-1.96;-5.44;2.94;9.26;-10.56
-4.14;-0.44;-5.44;2.94;6.86;1.52
0.65;2.07;-2.18;-1.09;5.23;3.92
2.29;-0.44;-0.54;-1.85;7.62;7.95
0.65;-6.86;-2.18;3.81;10.89;25.70
-0.98;-7.62;-15.90;2.18;5.23;17.64
16.01;-2.83;-14.27;5.34;5.23;1.52
3.05;4.46;2.61;2.94;1.20;14.37
5.44;5.23;0.22;6.97;-2.83;16.77
-1.74;3.59;8.28;-0.22;-6.86;2.29
-35.61;4.46;6.64;-3.48;-14.92;5.55
-0.98;2.83;3.48;25.48;-8.49;2.29
29.62;1.20;-3.05;-34.96;-11.65;-3.38
-1.74;-3.59;-2.18;-5.88;2.83;-5.77
10.35;5.23;-2.18;-6.75;14.16;-6.53
3.05;-5.23;-4.57;-0.22;15.68;-0.11
2.29;2.83;-3.05;-1.09;14.16;-3.38
3.05;-14.92;-3.81;2.18;10.89;-8.93
1.42;-5.23;-4.57;8.60;8.49;-13.83
-0.98;-1.96;-5.44;37.57;1.20;-11.43
3.05;-2.83;-7.08;3.81;-11.65;-10.56
-0.98;0.44;-3.05;-0.22;-20.47;-4.90
1.42;-0.44;6.64;2.18;-22.11;0.65
-4.14;1.20;-1.42;-2.72;-21.34;-5.77
-1.74;2.83;-19.93;-2.72;-20.47;20.80
-0.98;1.20;1.85;-2.72;-12.52;3.92
-0.98;7.62;1.85;10.24;-3.59;7.95
-33.21;3.59;3.48;-1.85;8.49;9.58
3.05;3.59;9.04;-1.85;6.86;15.25
-2.61;-1.96;6.64;-5.12;7.62;16.77
1.42;2.07;9.91;-1.85;5.23;-8.93
3.05;4.46;2.61;-1.85;-5.99;3.92
4.68;-1.96;-9.47;-1.85;6.10;-24.28
3.05;-3.59;-11.87;3.81;10.89;-10.56
7.95;5.23;-2.18;14.27;10.89;-6.53
1.42;0.44;-2.18;1.31;23.74;-8.17
2.29;1.20;-3.81;-3.48;26.24;-5.77
-0.98;-5.23;-1.42;3.81;29.40;-8.93
-7.41;-1.96;-3.05;6.21;12.52;-8.93
-0.11;-5.23;-2.18;2.18;-5.23;-16.23
-7.41;3.59;-7.08;3.81;-18.08;-8.17
-0.98;1.20;0.22;2.94;-13.29;3.16
-0.98;-1.96;16.33;2.94;-11.65;3.92
3.92;-0.44;-1.42;3.81;-5.23;10.35
24.07;2.83;3.48;-9.91;0.44;13.61
0.65;-3.59;-11.87;-9.15;0.44;16.01
-0.98;2.83;-6.21;-40.51;0.44;17.64
1.42;1.20;3.48;-7.51;-5.23;12.74
-0.98;1.20;-1.42;-9.15;2.07;30.49
-0.98;3.59;11.54;-4.25;-0.44;6.32
0.65;2.83;6.64;-3.48;-4.46;2.29
-1.74;2.83;-4.57;-1.09;-8.49;7.95
-28.31;28.64;3.48;-9.91;-10.02;-8.93
-0.98;-4.36;-6.21;0.54;-10.89;-16.99
16.77;0.44;-4.57;0.54;-18.95;-14.59
-5.01;1.20;-4.57;-1.09;-3.59;-1.74
-4.14;0.44;-6.21;3.81;0.44;-8.17
3.05;1.20;-3.81;9.37;6.10;21.67
3.05;-7.62;-16.66;6.97;14.92;-8.93
3.05;1.20;-3.05;6.21;14.92;-10.56
3.05;0.44;-2.18;0.54;12.52;-3.38
5.44;1.20;-2.18;2.18;5.23;1.52
0.65;3.59;-3.05;-1.09;-0.44;7.19
-12.20;2.07;-1.42;1.31;-3.59;4.68
1.42;-1.96;0.22;0.54;-4.46;11.22
1.42;5.23;3.48;-1.85;-5.99;14.37
-4.14;-8.39;5.88;-15.57;-5.23;9.58
2.29;3.59;6.64;-3.48;4.46;13.61
-4.14;0.44;-0.54;-3.48;4.46;-7.41
23.20;-2.83;-15.14;-3.48;9.26;11.22
-4.14;1.20;-3.05;5.34;5.23;2.29
24.07;2.83;-10.24;0.54;0.44;-1.74
3.05;-2.83;-10.24;-1.85;4.46;-8.17
24.83;-1.96;-19.17;2.18;3.59;-0.11
3.05;4.46;-10.24;2.18;6.10;-9.80
-25.92;0.44;33.21;2.18;3.59;-10.56
2.29;6.10;49.33;-9.15;-4.46;-11.43
8.71;-4.36;1.85;0.54;-5.99;-5.77
-25.16;-9.26;-10.24;-1.09;-13.29;-17.86
4.68;-1.20;-10.24;-1.09;-18.08;-11.43
2.29;-1.96;-32.78;-1.85;-18.08;12.74
23.20;-1.96;-4.57;-4.25;-10.89;-1.74
-2.61;27.01;-7.84;-5.88;-3.59;2.29
-8.17;-1.20;-4.57;0.54;-1.96;10.35
3.05;1.20;4.25;-0.22;7.62;6.32
2.29;5.23;-1.42;1.31;10.89;12.74
-1.74;1.20;-2.18;-5.88;12.52;16.77
-0.98;-0.44;-3.81;-1.85;10.89;16.01
-4.14;5.23;1.85;-1.09;7.62;16.77
-0.98;1.20;3.48;2.18;13.29;22.43
-0.11;-26.14;-1.42;-1.85;9.26;10.35
2.29;-22.11;5.88;-1.85;12.52;2.29
-17.86;-1.96;1.85;-1.09;6.10;-8.93
16.01;2.07;-2.18;2.18;5.23;-37.13
-0.98;-1.96;-1.42;11.00;2.83;-11.43
-2.61;4.46;-2.18;5.34;1.20;17.64
2.29;4.46;-11.11;6.97;-14.92;-25.92
0.65;-3.59;-5.44;2.94;-21.34;-10.56
-4.14;0.44;-2.18;6.21;-25.37;-12.96
11.11;-1.20;-2.18;10.24;-20.47;-15.46
3.92;-5.23;-3.05;-0.22;-19.71;-10.56
-2.61;-1.96;-2.18;-26.90;5.23;1.52
3.05;-11.65;0.22;-0.22;14.16;11.22
0.65;2.83;0.22;3.81;20.58;13.61
-0.98;-6.86;-0.54;0.54;22.22;15.25
18.40;5.23;5.88;1.31;14.16;15.25
3.05;19.71;1.85;-0.22;18.19;17.64
-5.77;0.44;-1.42;-2.72;3.59;14.37
-0.98;-1.20;3.48;-5.12;-5.23;13.61
1.42;1.20;3.48;-9.91;-8.49;16.77
-1.74;5.23;6.64;-1.09;-11.65;1.52
-11.43;14.16;0.22;23.96;-8.49;1.52
-4.14;5.23;-3.81;-2.72;-5.99;13.61
0.65;3.59;-1.42;0.54;-8.49;-11.43
0.65;5.23;-2.18;-2.72;4.46;-21.02
18.40;-3.59;-3.81;6.97;2.83;-14.59
0.65;-3.59;-7.08;11.00;-20.47;-17.86
3.05;-1.96;-5.44;-0.22;1.20;-12.96
3.05;-29.40;-6.21;6.21;-1.96;-11.43
-27.55;-5.23;-11.11;2.94;5.23;-11.43
1.42;-3.59;-2.18;6.21;1.20;-8.17
27.22;2.83;-2.18;2.18;-3.59;-9.80
3.05;10.89;-2.18;-34.96;-5.99;3.92
-4.14;-0.44;-2.18;3.81;-6.86;7.19
